"Time (s)","X (rad/s)","Y (rad/s)","Z (rad/s)"
1.737858332E-2,1.721018702E-1,-1.569578201E-1,2.071545087E-2
2.736758348E-2,1.435549110E-1,-1.180985644E-1,5.074099451E-2
3.735758341E-2,1.077928394E-1,-8.857785165E-2,7.198493183E-2
4.734758334E-2,6.433591247E-2,-6.811119616E-2,8.193849772E-2
5.733758351E-2,1.884877495E-2,-3.501157090E-2,8.654692769E-2
6.732658343E-2,-3.288365901E-2,1.381482463E-2,8.230930567E-2
7.731658337E-2,-9.453649074E-2,6.112018600E-2,7.079833001E-2
8.730658330E-2,-1.465951651E-1,8.573232591E-2,3.833599016E-2
9.729658347E-2,-1.796946526E-1,6.914632022E-2,4.257385619E-3
1.072855834E-1,-1.850707680E-1,9.961029515E-3,-2.211776376E-2
1.172755833E-1,-1.797774732E-1,-5.222298205E-2,-3.959688917E-2
1.272655835E-1,-1.614701003E-1,-1.011252776E-1,-5.393987522E-2
1.372555834E-1,-1.448698491E-1,-1.394775957E-1,-7.060848922E-2
1.472455834E-1,-1.294176579E-1,-1.762151122E-1,-8.609317243E-2
1.572345835E-1,-1.208993420E-1,-2.128435075E-1,-1.046966314E-1
1.672246251E-1,-1.167195067E-1,-2.492292076E-1,-1.327373087E-1
1.772146251E-1,-1.193039194E-1,-2.852208614E-1,-1.684889793E-1
1.872046250E-1,-1.171510145E-1,-3.047468662E-1,-2.011443973E-1
1.971936252E-1,-1.207272559E-1,-3.231052756E-1,-2.356714904E-1
2.071836251E-1,-1.284821182E-1,-3.609013855E-1,-2.714411914E-1
2.171736250E-1,-1.499070972E-1,-4.135029316E-1,-3.064354062E-1
2.271636252E-1,-1.927871853E-1,-4.737066031E-1,-3.488012254E-1
2.371536251E-1,-2.547990680E-1,-5.375511050E-1,-4.165572822E-1
2.471426250E-1,-3.579978943E-1,-5.777003765E-1,-5.055896640E-1
2.571326250E-1,-4.826229811E-1,-6.138233542E-1,-6.121158004E-1
2.671226251E-1,-6.129700541E-1,-6.402152777E-1,-7.259161472E-1
2.771126251E-1,-7.431815267E-1,-6.494208574E-1,-8.295552135E-1
2.871016250E-1,-8.849205375E-1,-6.786040664E-1,-9.166869521E-1
2.970916252E-1,-1.045214415E0,-7.064815760E-1,-1.007068515E0
3.070816251E-1,-1.218753457E0,-6.867419481E-1,-1.119958878E0
3.170716250E-1,-1.394340158E0,-6.627545953E-1,-1.241080523E0
3.270616252E-1,-1.558013558E0,-6.718798876E-1,-1.355886221E0
3.370506251E-1,-1.685695171E0,-6.558485031E-1,-1.457679152E0
3.470406251E-1,-1.763402462E0,-6.163386106E-1,-1.534748912E0
3.570306250E-1,-1.766002655E0,-5.700451136E-1,-1.570679069E0
3.670206252E-1,-1.716033220E0,-5.330594182E-1,-1.588925719E0
3.770096251E-1,-1.642276049E0,-5.544040799E-1,-1.618097544E0
3.869996250E-1,-1.547885656E0,-6.467204094E-1,-1.663979053E0
3.969896252E-1,-1.450186610E0,-8.211730719E-1,-1.719509602E0
4.069796251E-1,-1.350121975E0,-1.096048594E0,-1.781029344E0
4.169696250E-1,-1.241797566E0,-1.389761686E0,-1.847118020E0
4.269586250E-1,-1.123798490E0,-1.608593941E0,-1.919949055E0
4.369486251E-1,-1.002806306E0,-1.722920775E0,-2.009257555E0
4.469386251E-1,-8.912441134E-1,-1.755226731E0,-2.112310886E0
4.569286250E-1,-7.939334512E-1,-1.712786913E0,-2.226180315E0
4.669176252E-1,-7.138658166E-1,-1.596414804E0,-2.323030710E0
4.769076251E-1,-6.462395191E-1,-1.440665007E0,-2.385966063E0
4.868976250E-1,-5.801310539E-1,-1.297852397E0,-2.409715414E0
4.968876252E-1,-4.971313179E-1,-1.209314108E0,-2.387261152E0
5.068766251E-1,-3.888311982E-1,-1.192740202E0,-2.333528042E0
5.168666251E-1,-2.615953684E-1,-1.193903327E0,-2.262212992E0
5.268566250E-1,-1.374241561E-1,-1.167017102E0,-2.178653955E0
5.368466252E-1,-5.014820024E-2,-1.110171437E0,-2.097815275E0
5.468366251E-1,1.238628477E-2,-1.033297181E0,-2.020375967E0
5.568256250E-1,4.149866477E-2,-9.382572174E-1,-1.937858820E0
5.668156252E-1,5.867471918E-2,-8.359707594E-1,-1.860323310E0
5.768056251E-1,9.463118017E-2,-7.100046277E-1,-1.767624497E0
5.867956250E-1,1.426418424E-1,-5.534698963E-1,-1.663705826E0
5.967846250E-1,1.953288913E-1,-4.341239333E-1,-1.565083742E0
6.067746251E-1,2.371189445E-1,-3.792161942E-1,-1.472806096E0
6.167646251E-1,2.481473535E-1,-3.588487208E-1,-1.374773145E0
6.267546250E-1,2.307576984E-1,-3.552878201E-1,-1.274691582E0
6.367446252E-1,2.122687101E-1,-3.319901526E-1,-1.192493558E0
6.467336251E-1,1.874552369E-1,-3.147440553E-1,-1.160607576E0
6.567236250E-1,1.483689994E-1,-3.403188288E-1,-1.141912103E0
6.667136252E-1,1.134610847E-1,-3.967176378E-1,-1.109192967E0
6.767036251E-1,7.721114904E-2,-4.687286615E-1,-1.049882650E0
6.866926251E-1,9.067924693E-4,-5.580101013E-1,-9.473987222E-1
6.966826250E-1,-8.530142158E-2,-5.984424949E-1,-8.030122519E-1
7.066726252E-1,-1.678389013E-1,-5.570665598E-1,-6.495894194E-1
7.166626251E-1,-2.527673542E-1,-4.971645772E-1,-5.058311820E-1
7.266526250E-1,-3.694825172E-1,-4.406000972E-1,-4.071587324E-1
7.366416252E-1,-4.908487499E-1,-3.984983861E-1,-4.237419367E-1
7.466316251E-1,-5.691329241E-1,-4.473847151E-1,-4.724170566E-1
7.566216250E-1,-5.969175100E-1,-4.226576388E-1,-5.153835416E-1
7.666116250E-1,-5.919123292E-1,-3.662971556E-1,-5.311974287E-1
7.766006251E-1,-5.305536389E-1,-3.704586029E-1,-5.331464410E-1
7.865906251E-1,-4.200154543E-1,-3.469580710E-1,-5.690482259E-1
7.965806250E-1,-2.788533568E-1,-2.964403629E-1,-6.057966352E-1
8.065706252E-1,-9.353594482E-2,-2.802675068E-1,-6.951422691E-1
8.165606251E-1,8.648762107E-2,-2.183486521E-1,-7.541832924E-1
8.265496250E-1,2.595321238E-1,-5.355039611E-2,-7.813068032E-1
8.365396252E-1,4.166461229E-1,1.085803285E-1,-8.836727142E-1
8.465296251E-1,5.191386938E-1,7.677366585E-2,-9.328408241E-1
8.565196251E-1,5.179638267E-1,1.164488792E-1,-8.426478505E-1
8.665086250E-1,4.170880914E-1,1.152885407E-1,-7.515552044E-1
8.764986251E-1,2.589270771E-1,-4.406942986E-3,-6.914457679E-1
8.864886251E-1,1.161166430E-1,-1.957902163E-1,-7.037330270E-1
8.964786250E-1,1.367940102E-2,-2.892848849E-1,-7.571679354E-1
9.064676252E-1,-7.178249955E-2,-1.632164568E-1,-7.264502645E-1
9.164576251E-1,-1.344394684E-1,8.014334738E-2,-5.863811374E-1
9.264476250E-1,-1.054323092E-1,3.054699302E-1,-4.120671451E-1
9.364376250E-1,1.096611470E-2,4.959009290E-1,-2.547420561E-1
9.464276251E-1,1.522422731E-1,5.931283832E-1,-1.173778176E-1
9.564166251E-1,2.976707220E-1,5.905676484E-1,-4.740245640E-2
9.664066250E-1,4.069649875E-1,6.487979293E-1,-3.623555601E-2
9.763966252E-1,4.939336777E-1,7.939603329E-1,2.829374373E-2
9.863866251E-1,6.258504391E-1,9.122941494E-1,1.173884645E-1
9.963756250E-1,7.935150266E-1,1.043735981E0,1.256406456E-1
1.006365625E0,9.518354535E-1,1.190355539E0,7.851841301E-2
1.016355625E0,1.034352779E0,1.271410704E0,3.570127301E-4
1.026345625E0,1.032922864E0,1.188140869E0,-9.201153368E-2
1.036335625E0,9.679372311E-1,9.929968715E-1,-2.336684763E-1
1.046324625E0,8.383174539E-1,7.785995603E-1,-4.059715569E-1
1.056314625E0,6.056682467E-1,5.121963024E-1,-5.521122217E-1
1.066304625E0,3.134246469E-1,2.864172459E-1,-6.562125087E-1
1.076294625E0,2.073908597E-2,1.409223676E-1,-7.190375924E-1
1.086283625E0,-2.135692835E-1,2.654066309E-2,-7.412249446E-1
1.096273625E0,-3.820493221E-1,-1.005463600E-1,-7.737863660E-1
1.106263625E0,-4.972773790E-1,-1.980832964E-1,-8.304778934E-1
1.116253625E0,-5.801398158E-1,-2.993798554E-1,-8.847705126E-1
1.126242625E0,-6.410175562E-1,-4.052636623E-1,-9.386140108E-1
1.136232625E0,-6.797320247E-1,-4.688664079E-1,-9.441524148E-1
1.146222625E0,-7.068794370E-1,-5.058516264E-1,-8.451081514E-1
1.156212625E0,-7.149124146E-1,-5.318574905E-1,-6.610321999E-1
1.166202000E0,-7.050432563E-1,-5.386008620E-1,-4.700534344E-1
1.176191000E0,-6.723346114E-1,-4.295649230E-1,-3.229473829E-1
1.186181000E0,-6.075801253E-1,-4.019737542E-1,-2.612850666E-1
1.196171000E0,-4.708768427E-1,-6.480667591E-1,-2.662163079E-1
1.206161000E0,-4.631872177E-1,-5.456125140E-1,-3.215528131E-1
1.216150000E0,-5.383345485E-1,-4.653716385E-1,-2.796782553E-1
1.226140000E0,-5.460816622E-1,-4.548186064E-1,-1.754985899E-1
1.236130000E0,-5.228091478E-1,-1.628033519E-1,-1.064534187E-1
1.246120000E0,-4.829046130E-1,5.120347440E-2,-1.111677513E-1
1.256110000E0,-4.316062331E-1,-7.856776938E-4,-1.909714490E-1
1.266099000E0,-4.136850238E-1,-2.221572101E-1,-2.963921428E-1
1.276089000E0,-3.879075944E-1,-4.627787769E-1,-3.869009018E-1
1.286079000E0,-3.408724368E-1,-5.291770101E-1,-4.251026213E-1
1.296069000E0,-2.257228643E-1,-5.138575435E-1,-4.664008915E-1
1.306058000E0,-4.056658968E-2,-4.667465389E-1,-6.335845590E-1
1.316048000E0,1.680724770E-1,-4.274370968E-1,-8.939955831E-1
1.326038000E0,3.415342569E-1,-3.457100093E-1,-1.177682400E0
1.336028000E0,4.214041531E-1,-3.983727396E-1,-1.431178570E0
1.346017000E0,3.207529187E-1,-4.392780960E-1,-1.646190166E0
1.356007000E0,1.021543145E-1,-3.735022843E-1,-1.784640551E0
1.365997000E0,-1.089739054E-1,-4.506261051E-1,-1.843370199E0
1.375987000E0,-2.745069563E-1,-5.316262841E-1,-1.881258249E0
1.385977000E0,-4.190905094E-1,-6.782756448E-1,-1.933629513E0
1.395966000E0,-5.685614347E-1,-8.347789049E-1,-1.990664244E0
1.405956000E0,-7.007769942E-1,-9.813765883E-1,-2.075437546E0
1.415946000E0,-8.035187125E-1,-1.117263079E0,-2.236470461E0
1.425936000E0,-8.633453250E-1,-1.172918677E0,-2.479192257E0
1.435925000E0,-8.736642599E-1,-1.191563725E0,-2.755410910E0
1.445915000E0,-8.250080347E-1,-1.220230341E0,-2.984734535E0
1.455905000E0,-7.265503407E-1,-1.237934351E0,-3.153018713E0
1.465895000E0,-6.067988873E-1,-1.279497743E0,-3.232889652E0
1.475885000E0,-4.922218323E-1,-1.387511611E0,-3.236964226E0
1.485874000E0,-3.888059556E-1,-1.493270755E0,-3.212514877E0
1.495864000E0,-3.238935173E-1,-1.620136023E0,-3.203432798E0
1.505854000E0,-3.279729486E-1,-1.793663383E0,-3.229130983E0
1.515844000E0,-3.965843916E-1,-1.970591426E0,-3.298758268E0
1.525833000E0,-5.172809958E-1,-2.184087276E0,-3.394219875E0
1.535823000E0,-6.805890203E-1,-2.405640125E0,-3.483336210E0
1.545813000E0,-8.647570014E-1,-2.621329308E0,-3.626500607E0
1.555803000E0,-1.044832826E0,-2.722726107E0,-3.807953596E0
1.565793000E0,-1.210257649E0,-2.785150766E0,-3.947824955E0
1.575782000E0,-1.320222855E0,-2.828661919E0,-4.004563332E0
1.585772000E0,-1.348565221E0,-2.898609161E0,-3.962637901E0
1.595762000E0,-1.313454151E0,-2.932363510E0,-3.901091576E0
1.605752000E0,-1.227545142E0,-2.948437452E0,-3.920754433E0
1.615741000E0,-1.122343421E0,-3.032245874E0,-4.055469990E0
1.625731000E0,-1.042257905E0,-3.167539597E0,-4.286458015E0
1.635721000E0,-9.982275367E-1,-3.397031784E0,-4.450939655E0
1.645711000E0,-9.665260911E-1,-3.605687618E0,-4.418176651E0
1.655701000E0,-9.489784241E-1,-3.769798994E0,-4.269297600E0
1.665690000E0,-9.616135359E-1,-3.956244707E0,-4.124127388E0
1.675680000E0,-1.012699127E0,-4.050295830E0,-4.077164173E0
1.685670000E0,-1.070384502E0,-4.067701817E0,-4.110494614E0
1.695660000E0,-1.100287795E0,-4.106830597E0,-4.108917713E0
1.705649000E0,-1.071008205E0,-4.017534256E0,-3.996451378E0
1.715639000E0,-9.831166863E-1,-3.833871603E0,-3.779442549E0
1.725629000E0,-8.741433620E-1,-3.583878279E0,-3.542804241E0
1.735619000E0,-7.425333261E-1,-3.334776878E0,-3.324243307E0
1.745608000E0,-5.930578113E-1,-3.083042145E0,-3.110288858E0
1.755598000E0,-4.424244165E-1,-2.861089230E0,-2.893074989E0
1.765588000E0,-3.277558684E-1,-2.741896868E0,-2.702691317E0
1.775578000E0,-2.832618356E-1,-2.676291943E0,-2.604839325E0
1.785568000E0,-2.959115803E-1,-2.685723782E0,-2.541379929E0
1.795557000E0,-3.391489089E-1,-2.835071087E0,-2.494873762E0
1.805547000E0,-3.883641362E-1,-3.017282248E0,-2.491402864E0
1.815537000E0,-4.084108472E-1,-3.202018261E0,-2.490185022E0
1.825527000E0,-3.951565623E-1,-3.256323099E0,-2.449012280E0
1.835517000E0,-3.238681257E-1,-3.167351007E0,-2.347212791E0
1.845506000E0,-2.088951916E-1,-3.094904423E0,-2.197796106E0
1.855496000E0,-8.635611832E-2,-3.042391300E0,-2.058773756E0
1.865486000E0,2.867230680E-3,-2.973552227E0,-1.937508106E0
1.875476000E0,6.261264533E-2,-2.903327465E0,-1.782257318E0
1.885465000E0,1.116688699E-1,-2.809666395E0,-1.586900830E0
1.895455000E0,1.766209602E-1,-2.651287556E0,-1.390847802E0
1.905445000E0,2.448543459E-1,-2.483454466E0,-1.191730738E0
1.915435000E0,3.400332034E-1,-2.301463127E0,-1.008479238E0
1.925425000E0,4.593580067E-1,-2.109116554E0,-8.657383919E-1
1.935414000E0,5.852804780E-1,-1.913470984E0,-7.354671955E-1
1.945404000E0,6.932210326E-1,-1.750926733E0,-6.251263022E-1
1.955394000E0,7.758885026E-1,-1.618305564E0,-5.586013198E-1
1.965384000E0,8.264353275E-1,-1.523960114E0,-5.136463642E-1
1.975373000E0,8.321009278E-1,-1.461428404E0,-4.632729590E-1
1.985363000E0,8.008162379E-1,-1.419051409E0,-3.871425092E-1
1.995353000E0,7.434161305E-1,-1.402963400E0,-2.680391967E-1
2.005343000E0,6.725917459E-1,-1.364540935E0,-1.540247649E-1
2.015333000E0,6.228787303E-1,-1.273054123E0,-6.870576739E-2
2.025322000E0,5.976127982E-1,-1.215133309E0,1.385964919E-3
2.035312000E0,6.003339291E-1,-1.141842246E0,4.412939772E-2
2.045302000E0,6.106835008E-1,-1.081366897E0,1.006627157E-1
2.055292000E0,6.213011742E-1,-1.030621529E0,2.108752280E-1
2.065281000E0,6.269694567E-1,-9.207655787E-1,3.276873231E-1
2.075271000E0,6.309758425E-1,-7.884817123E-1,4.293976426E-1
2.085261000E0,6.424269080E-1,-6.960121989E-1,5.034918785E-1
2.095251000E0,7.004864216E-1,-7.298189402E-1,6.142311692E-1
2.105241000E0,8.568137884E-1,-6.314467788E-1,7.367683053E-1
2.115230000E0,8.668961525E-1,-4.315890968E-1,7.757074237E-1
2.125220000E0,2.300848663E-1,-3.888903558E-1,6.729301810E-1
2.135210000E0,-4.767614305E-1,-4.658479691E-1,5.601328015E-1
2.145200000E0,-8.273658156E-1,-5.754570365E-1,5.358793736E-1
2.155190000E0,-6.880438328E-1,-5.129149556E-1,5.635265112E-1
2.165179500E0,-2.936741710E-1,-2.816673219E-1,5.580808520E-1
2.175169500E0,9.941735864E-2,-6.040981784E-2,5.705556273E-1
2.185159500E0,2.900597453E-1,-3.177151829E-2,6.363554001E-1
2.195149500E0,3.433413506E-1,-6.672318280E-2,6.637490988E-1
2.205138500E0,3.241266310E-1,-1.078908592E-1,6.534434557E-1
2.215128500E0,2.848227024E-1,-1.191496253E-1,6.800811887E-1
2.225118500E0,2.309139222E-1,-1.331650466E-1,6.799014211E-1
2.235108500E0,2.146687955E-1,-1.528156698E-1,6.910135150E-1
2.245098500E0,2.404607087E-1,-1.446935534E-1,6.059915423E-1
2.255087500E0,2.449083477E-1,-1.255158186E-1,4.702698886E-1
2.265077500E0,2.280358970E-1,-1.194131896E-1,3.683073223E-1
2.275067500E0,2.144662589E-1,-1.008543596E-1,3.442092240E-1
2.285057500E0,2.070387006E-1,-1.332538426E-1,3.470678627E-1
2.295047500E0,1.655613929E-1,-1.458178908E-1,3.474491835E-1
2.305036500E0,1.362248063E-1,-1.844054908E-1,3.797549307E-1
2.315026500E0,1.502951086E-1,-2.036387771E-1,4.107299149E-1
2.325016500E0,1.620439142E-1,-2.355932444E-1,4.124838710E-1
2.335006500E0,1.773366034E-1,-2.621451318E-1,4.204452932E-1
2.344995500E0,2.010366023E-1,-2.746737301E-1,4.503110349E-1
2.354985500E0,2.565022707E-1,-2.172721475E-1,4.993459582E-1
2.364975500E0,3.354173303E-1,-1.371416301E-1,5.280953646E-1
2.374965500E0,3.862033784E-1,-3.061389923E-2,5.325399637E-1
2.384955500E0,3.939094841E-1,-1.530365273E-2,5.127382874E-1
2.394944500E0,3.573459387E-1,-6.689979229E-3,4.643219411E-1
2.404934500E0,2.973526418E-1,-4.857990891E-3,4.098160863E-1
2.414924500E0,2.312602103E-1,-4.279823974E-2,3.897135258E-1
2.424914500E0,2.103599906E-1,-1.098787338E-1,3.841200769E-1
2.434904500E0,2.012690306E-1,-1.344120502E-1,3.862910867E-1
2.444893500E0,1.921061575E-1,-2.076457888E-1,4.229969084E-1
2.454883500E0,1.714282781E-1,-2.458997518E-1,4.545231462E-1
2.464873500E0,1.208335459E-1,-2.924818993E-1,4.629424810E-1
2.474863500E0,7.810109109E-2,-2.743504047E-1,4.905586839E-1
2.484852500E0,5.009901896E-2,-2.431477606E-1,4.888675809E-1
2.494842500E0,1.189410165E-1,-1.889120638E-1,5.245517492E-1
2.504832500E0,1.965878755E-1,-5.913409218E-2,5.845330954E-1
2.514822500E0,1.714475900E-1,4.147886485E-2,6.195719838E-1
2.524812500E0,6.349395216E-2,-1.409544982E-2,6.242996454E-1
2.534801500E0,2.156975716E-1,1.630684584E-1,7.012083530E-1
2.544791500E0,5.712764263E-1,2.981376052E-1,9.110257626E-1
2.554781500E0,6.538193226E-1,3.999605775E-1,9.449968934E-1
2.564771500E0,6.272681952E-1,3.076932430E-1,8.758433461E-1
2.574761500E0,4.654881656E-1,2.854644656E-1,7.987253070E-1
2.584750500E0,1.660077274E-1,1.792775691E-1,7.171090245E-1
2.594740500E0,1.145317480E-1,1.629850864E-1,7.574427724E-1
2.604730500E0,2.378257215E-1,2.276197374E-1,7.644783258E-1
2.614720500E0,3.105623126E-1,2.549561560E-1,6.929004192E-1
2.624710500E0,2.500912547E-1,1.704431623E-1,5.972255468E-1
2.634699500E0,5.306964368E-2,3.806437552E-2,5.116778612E-1
2.644689500E0,-2.231012285E-1,-9.201745689E-2,4.879592061E-1
2.654679500E0,-5.409802198E-1,-1.533386111E-1,3.563247025E-1
2.664669500E0,-8.041449785E-1,-2.263302654E-1,2.192818820E-1
2.674658500E0,-7.512968779E-1,-1.837121695E-1,2.111625820E-1
2.684648500E0,-4.760517478E-1,-1.483669728E-1,1.191178858E-1
2.694638500E0,-1.559757739E-1,-6.551289558E-2,5.684982985E-2
2.704628500E0,-1.366036683E-1,5.845059082E-2,-2.972225659E-3
2.714618500E0,-3.424581289E-1,8.733268827E-2,-4.896177351E-2
2.724607500E0,-5.312831402E-1,6.973505020E-2,-4.406634718E-2
2.734597500E0,-6.412254572E-1,8.528010547E-2,1.913052425E-2
2.744587500E0,-7.294826508E-1,6.399532408E-2,1.015593484E-1
2.754577500E0,-6.558732986E-1,6.973619014E-2,1.246057674E-1
2.764567500E0,-4.252088964E-1,1.415688396E-1,1.500778347E-1
2.774556500E0,-2.290571183E-1,2.621380389E-1,2.441063225E-1
2.784546500E0,2.299537137E-2,3.591527343E-1,3.800100982E-1
2.794536500E0,2.636110187E-1,4.262872636E-1,5.703982711E-1
2.804526500E0,6.882230043E-1,4.038501084E-1,8.727682829E-1
2.814516500E0,2.358418226E0,-6.388001144E-2,1.554691195E0
2.824505500E0,5.471695423E0,1.417221427E-1,1.508155704E0
2.834495500E0,5.555521965E0,4.766154587E-1,2.972818911E-1
2.844485500E0,3.401693583E0,3.645480573E-1,-4.142188281E-2
2.854475500E0,5.965050459E-1,2.951332033E-1,2.913819551E-1
2.864465500E0,-1.192307115E0,8.374240994E-2,4.162293375E-1
2.874454500E0,-1.239108920E0,-5.278647412E-3,3.180285394E-1
2.884444500E0,-4.119700193E-1,1.706905216E-1,9.332405776E-2
2.894434500E0,3.489753902E-1,2.880401611E-1,-9.237603098E-2
2.904424500E0,5.359889269E-1,3.328313231E-1,-7.382392138E-2
2.914414500E0,2.755416632E-1,3.350428045E-1,-2.585774958E-1
2.924403500E0,2.454910800E-2,4.444542527E-1,-7.089867592E-1
2.934393500E0,-1.392938346E-1,6.008886099E-1,-1.265868664E0
2.944383500E0,-2.558169663E-1,4.870760441E-1,-1.818038821E0
2.954373500E0,-4.142171741E-1,2.480609417E-1,-2.525162458E0
2.964362500E0,-5.280857086E-1,1.005673558E-1,-3.179448605E0
2.974352500E0,-5.643885136E-1,1.799529493E-1,-3.802858591E0
2.984342500E0,-4.379264116E-1,3.177877665E-1,-3.776568890E0
2.994332500E0,-1.943733916E-2,2.051738650E-1,-3.361943483E0
3.004322500E0,4.337567687E-1,-1.640353352E-1,-2.703315258E0
3.014311500E0,3.631144464E-1,-5.434889197E-1,-2.184956074E0
3.024301500E0,-1.601338685E-1,-1.180132985E0,-2.059238911E0
3.034291500E0,-5.684497952E-1,-2.225946426E0,-2.066518307E0
3.044281500E0,-8.985022306E-1,-1.925013304E0,-2.090812206E0
3.054271500E0,-8.472300172E-1,-1.257361650E0,-2.027716875E0
3.064260500E0,-6.637688279E-1,-8.284465075E-1,-1.961689115E0
3.074250500E0,-4.159086645E-1,-5.542386770E-1,-2.057080984E0
3.084240500E0,-2.919089496E-1,-4.642570913E-1,-2.263864279E0
3.094230500E0,-2.948054969E-1,-8.255090117E-1,-2.363935232E0
3.104220500E0,-3.124449551E-1,-1.047424316E0,-2.551537991E0
3.114209500E0,-3.193003237E-1,-1.011221170E0,-2.644418001E0
3.124199500E0,-3.589704931E-1,-1.187744021E0,-2.651825905E0
3.134189500E0,-3.770561516E-1,-1.154392362E0,-2.449590921E0
3.144179500E0,-2.464017421E-1,-8.188614249E-1,-2.140774727E0
3.154169500E0,-2.109414488E-1,-5.981061459E-1,-2.159677267E0
3.164158583E0,-1.572023332E-1,-5.938549638E-1,-1.683362246E0
3.174148583E0,1.322513912E-2,-1.653252989E-1,-1.465117216E0
3.184138583E0,-9.407654405E-2,-2.285338342E-1,-1.442645669E0
3.194128583E0,-2.920978367E-1,-3.423622847E-1,-1.308819294E0
3.204118583E0,-3.750537038E-1,-3.055784404E-1,-1.337640285E0
3.214107584E0,-4.142383933E-1,-3.153518736E-1,-1.251011372E0
3.224097583E0,-4.241964817E-1,-1.397065371E-1,-1.202906847E0
3.234087583E0,-3.546527326E-1,9.124621749E-2,-1.111206532E0
3.244077583E0,-3.092801869E-1,1.806040555E-1,-1.066514730E0
3.254067583E0,-3.474032879E-1,1.592904478E-1,-1.097319484E0
3.264056583E0,-3.864494860E-1,2.055431604E-1,-9.537476897E-1
3.274046583E0,-3.298994601E-1,2.323671132E-1,-1.077139139E0
3.284036583E0,-2.032219470E-1,5.228683352E-2,-1.351250648E0
3.294026583E0,-1.607067138E-1,-1.084990427E-1,-1.642680049E0
