"Time (s)","X (rad/s)","Y (rad/s)","Z (rad/s)"
7.570291695E-3,1.228312030E-1,-6.084587574E-1,7.253275514E-1
1.759829168E-2,-3.508635461E-1,-4.368965626E-1,7.152913809E-1
2.762629167E-2,-8.919422626E-1,-2.301463187E-1,6.072855592E-1
3.765429169E-2,-1.407058120E0,-2.825501375E-2,4.475551844E-1
4.768129167E-2,-1.835557222E0,1.450978667E-1,3.319502771E-1
5.770929169E-2,-2.110585690E0,2.437240481E-1,3.219734728E-1
6.773729168E-2,-2.218766212E0,2.814402580E-1,3.785134554E-1
7.776529167E-2,-2.188174248E0,1.430807710E-1,4.140216112E-1
8.779329169E-2,-2.037668228E0,-9.472086281E-2,4.029796124E-1
9.782129168E-2,-1.805904627E0,-2.775468826E-1,3.872528672E-1
1.078492917E-1,-1.568807364E0,-3.424092233E-1,3.871143758E-1
1.178772917E-1,-1.407834768E0,-3.252973557E-1,3.708480895E-1
1.279052917E-1,-1.372878671E0,-2.920445800E-1,3.157182634E-1
1.379332917E-1,-1.443739414E0,-1.977516413E-1,2.202201784E-1
1.479612917E-1,-1.571232677E0,-8.285968006E-2,1.089804694E-1
1.579892917E-1,-1.664144039E0,1.738436893E-2,3.105812892E-2
1.680172917E-1,-1.664936066E0,6.568718702E-2,6.247783452E-2
1.780452917E-1,-1.607107401E0,-5.711195990E-2,1.657781154E-1
1.880732917E-1,-1.502199411E0,-3.339971006E-1,2.690128684E-1
1.981002917E-1,-1.273132920E0,-6.290428042E-1,3.282996714E-1
2.081282917E-1,-8.477675319E-1,-6.965028048E-1,3.595137894E-1
2.181562917E-1,-3.632492125E-1,-7.256290317E-1,3.767802119E-1
2.281842917E-1,6.875119358E-2,-7.815860510E-1,3.319006264E-1
2.382122917E-1,3.558416963E-1,-7.803663015E-1,2.273112088E-1
2.482402917E-1,4.048534632E-1,-7.502992153E-1,3.276729584E-2
2.582682917E-1,2.258603573E-1,-6.279101968E-1,-2.021051496E-1
2.682962917E-1,-1.186397672E-1,-5.914094448E-1,-4.180635214E-1
2.783242917E-1,-5.192932487E-1,-7.911062837E-1,-5.927626491E-1
2.883522917E-1,-8.444156647E-1,-1.114655018E0,-6.719980836E-1
2.983802917E-1,-1.073938012E0,-6.171475649E-1,-6.005590558E-1
3.084082917E-1,-1.134228706E0,-2.319988012E-1,-2.781533003E-1
3.184362917E-1,-1.060065150E0,-5.189291239E-1,9.973189980E-2
3.284642917E-1,-9.041692615E-1,-1.237696648E0,3.380808234E-1
3.384912917E-1,-7.511367202E-1,-1.836037159E0,2.916254997E-1
3.485192917E-1,-6.283167601E-1,-1.667651892E0,1.626323760E-1
3.585472917E-1,-6.005082726E-1,-8.227401376E-1,1.231787801E-1
3.685752917E-1,-6.958894134E-1,1.377608478E-1,6.052392721E-2
3.786032917E-1,-8.365054131E-1,7.178628445E-1,-1.888651773E-2
3.886312917E-1,-9.013019800E-1,6.643665433E-1,-1.269224286E-1
3.986592917E-1,-9.577849507E-1,-3.043574691E-1,-4.036261141E-1
4.086872917E-1,-1.215744495E0,-6.061282158E-1,-7.335592508E-1
4.187152917E-1,-1.313211322E0,-6.301158071E-1,-6.950901747E-1
4.287432917E-1,-1.284398913E0,6.408903003E-1,-3.209844828E-1
4.387712917E-1,-1.053030968E0,2.403787374E0,1.127919480E-1
4.487992917E-1,-6.832078099E-1,3.425137758E0,4.078214467E-1
4.588272917E-1,-2.191418707E-1,3.680209398E0,5.259689093E-1
4.688552917E-1,1.728157699E-1,3.173951864E0,5.219890475E-1
4.788832917E-1,2.835223079E-1,2.141574860E0,3.164745569E-1
4.889112917E-1,1.113297492E-1,5.838613510E-1,1.827010363E-1
4.989382917E-1,-2.994483411E-1,-7.466592789E-1,1.012311056E-1
5.089662917E-1,-8.705661893E-1,-1.394554138E0,-1.153102592E-1
5.189942917E-1,-1.417823195E0,-1.277745724E0,-3.142692149E-1
5.290222917E-1,-1.819017768E0,-4.291832745E-1,-3.892084360E-1
5.390502917E-1,-1.895297170E0,6.718629003E-1,-3.189674318E-1
5.490782917E-1,-1.614726782E0,1.300995708E0,-4.480139166E-2
5.591062917E-1,-1.106104851E0,1.341042519E0,2.335030437E-1
5.691342917E-1,-5.011761785E-1,1.093416929E0,3.270015419E-1
5.791622917E-1,-6.628658623E-3,4.915831089E-1,3.216244280E-1
5.891902917E-1,2.435984910E-1,-6.289714575E-1,2.807917893E-1
5.992182917E-1,3.982873261E-1,-1.799720049E0,3.699133396E-1
6.092462917E-1,4.373252690E-1,-2.472188950E0,4.462904036E-1
6.192742917E-1,2.462538779E-1,-1.975358129E0,3.651507199E-1
6.293022917E-1,-1.339411288E-1,-5.734682679E-1,2.652169466E-1
6.393292917E-1,-3.980236650E-1,-1.769273132E-1,1.499868482E-1
6.493572917E-1,-7.885424495E-1,-6.726483703E-1,-2.028803974E-1
6.593852917E-1,-1.237732291E0,-5.959551930E-1,-6.506051421E-1
6.694132917E-1,-1.548888683E0,-3.278313577E-1,-1.160297871E0
6.794412917E-1,-1.551429510E0,-2.096040398E-1,-1.553502917E0
6.894691250E-1,-1.152830482E0,-5.717209578E-1,-1.511480808E0
6.994971250E-1,-4.067960083E-1,-9.405218959E-1,-1.188622117E0
7.095251250E-1,1.706793159E-1,-1.032784224E0,-7.251154780E-1
7.195531250E-1,4.476255774E-1,-9.290423989E-1,-3.477604985E-1
7.295811250E-1,3.088088334E-1,-6.170551777E-1,-9.049806744E-2
7.396091250E-1,-1.272572130E-1,-3.361918032E-1,-9.392328560E-2
7.496371250E-1,-6.879678965E-1,1.779303849E-1,-3.824040592E-1
7.596651250E-1,-1.304003239E0,6.372199059E-1,-7.085564733E-1
7.696931250E-1,-1.868516207E0,7.809376717E-1,-1.030946016E0
7.797201250E-1,-2.143157482E0,7.446283698E-1,-1.259811640E0
7.897481250E-1,-1.887605190E0,4.494785368E-1,-1.259881139E0
7.997761250E-1,-1.140368342E0,2.232145071E-1,-9.881551266E-1
8.098041250E-1,-3.311114609E-1,-4.221849144E-2,-6.396533251E-1
8.198321250E-1,2.350170910E-1,-2.950145602E-1,-3.682366014E-1
8.298601250E-1,4.997725785E-1,-5.126810670E-1,-1.911523640E-1
8.398881250E-1,4.529580772E-1,-5.737913251E-1,-1.965373009E-1
8.499161250E-1,2.335237265E-1,-3.906917870E-1,-3.483803570E-1
8.599441250E-1,-3.174898773E-2,-4.467794672E-2,-4.186922610E-1
8.699721250E-1,-3.512713313E-1,3.700143099E-1,-2.965077758E-1
8.800001250E-1,-6.254733801E-1,5.757395625E-1,-1.706228964E-2
8.900281250E-1,-7.624884844E-1,5.600114465E-1,3.020446002E-1
9.000561250E-1,-7.307077050E-1,3.645388484E-1,4.993499517E-1
9.100841250E-1,-6.069181561E-1,1.746919751E-1,5.661540031E-1
9.201121250E-1,-3.867144287E-1,-4.051594064E-2,5.588338971E-1
9.301391250E-1,-1.763438880E-1,-2.396143973E-1,4.593632221E-1
9.401671250E-1,-2.668154612E-2,-2.470012158E-1,2.864203155E-1
9.501951250E-1,2.631908655E-2,-1.644589156E-1,9.704239666E-2
9.602231250E-1,5.935696419E-3,-5.282188207E-2,-1.385362893E-1
9.702511250E-1,-2.784037590E-2,5.237776786E-2,-3.016767502E-1
9.802791250E-1,-6.212060153E-2,1.205293983E-1,-3.171742857E-1
9.903071250E-1,-1.515516788E-1,1.589974314E-1,-2.616830766E-1
1.000335125E0,-2.343191206E-1,1.679885089E-1,-1.482774466E-1
1.010363125E0,-2.786264122E-1,1.022673026E-1,4.089727253E-2
1.020391125E0,-3.436910808E-1,1.461496297E-2,3.032175004E-1
1.030419125E0,-4.231353104E-1,-4.803163931E-2,5.910987854E-1
1.040447125E0,-4.876188636E-1,-9.012876451E-2,8.400247097E-1
1.050475125E0,-5.023940206E-1,-1.478285491E-1,9.082360268E-1
1.060503125E0,-4.716074765E-1,-1.762617826E-1,7.921947837E-1
1.070530125E0,-4.249683321E-1,-1.869109720E-1,5.654971600E-1
1.080558125E0,-3.771116138E-1,-6.029177085E-2,2.490202934E-1
1.090586125E0,-3.527040184E-1,1.277497709E-1,-1.842953265E-2
1.100614125E0,-3.308084011E-1,1.786667407E-1,-1.131987274E-1
1.110642125E0,-2.925704718E-1,7.392675430E-2,8.511198685E-3
1.120670125E0,-2.982311845E-1,-1.323976666E-1,2.035434395E-1
1.130698125E0,-3.211887181E-1,-2.348651886E-1,3.817200959E-1
1.140726125E0,-3.415969312E-1,-1.568119228E-1,5.159473419E-1
1.150754125E0,-3.731276989E-1,-7.559616119E-2,6.005788445E-1
1.160782125E0,-3.973934650E-1,-8.891783655E-2,6.004595160E-1
1.170810125E0,-4.160110950E-1,-1.447669864E-1,5.261788964E-1
1.180838125E0,-4.364120662E-1,-1.751829386E-1,4.045788944E-1
1.190866125E0,-4.442321658E-1,-1.593344659E-1,2.574520409E-1
1.200894125E0,-4.210178852E-1,-7.659007609E-2,1.560726911E-1
1.210922125E0,-3.961261213E-1,3.545869887E-2,1.123750061E-1
1.220949125E0,-3.613617718E-1,8.806759864E-2,1.093984321E-1
1.230977125E0,-3.374308646E-1,5.473387986E-2,1.252612919E-1
1.241005125E0,-3.395596147E-1,7.292380929E-2,1.222782135E-1
1.251033125E0,-3.432038724E-1,1.567097753E-1,8.045965433E-2
1.261061125E0,-3.345328271E-1,1.908597350E-1,5.428072438E-2
1.271089125E0,-3.171756864E-1,1.673229933E-1,2.828400955E-2
1.281117125E0,-2.795409262E-1,1.208844036E-1,9.406906553E-3
1.291145125E0,-2.361237109E-1,1.198100820E-1,1.134382375E-2
1.301173125E0,-1.819088310E-1,1.516952813E-1,3.134592623E-2
1.311201125E0,-1.415265203E-1,1.345040500E-1,4.899416119E-2
1.321229125E0,-1.523015648E-1,1.049349904E-1,8.414356411E-2
1.331257125E0,-2.050784826E-1,5.869212747E-2,9.924368560E-2
1.341285125E0,-3.070634007E-1,3.038448747E-3,6.915745139E-2
1.351313125E0,-4.175446332E-1,-3.699392453E-2,-5.327428691E-3
1.361340125E0,-1.333590299E-1,-6.204386055E-2,3.113311529E-2
1.371368125E0,5.555810332E-1,3.959541395E-2,1.270916015E-1
1.381396125E0,1.132966638E0,4.337192774E-1,5.443949252E-2
1.391424125E0,1.453770518E0,3.586266339E-1,-3.570664302E-2
1.401452125E0,1.055638671E0,2.803859115E-1,-9.929348528E-2
1.411480125E0,4.595483541E-1,2.397668362E-1,-2.212580144E-1
1.421508125E0,2.057210803E-1,2.622841299E-1,-1.985095441E-1
1.431536125E0,3.319591656E-2,3.510502279E-1,-1.460764259E-1
1.441564125E0,-4.212232679E-2,4.741620421E-1,-1.132688075E-1
1.451592125E0,-1.123978272E-1,5.100026131E-1,-1.462451220E-1
1.461620125E0,-4.007860273E-2,3.925140500E-1,-1.640080661E-1
1.471648125E0,6.510933489E-2,1.992982477E-1,-9.283374995E-2
1.481676125E0,1.898990571E-1,1.369104981E-1,-1.352731697E-2
1.491704125E0,2.047307342E-1,7.927225903E-3,1.125664413E-1
1.501731125E0,8.556216210E-2,-1.795601100E-1,3.238596916E-1
1.511759125E0,-2.047239617E-2,-1.004466563E-1,3.905263245E-1
1.521787125E0,-3.927046433E-2,7.208166178E-3,2.973981798E-1
1.531815125E0,6.635956466E-2,1.117164642E-1,3.225461245E-1
1.541843125E0,2.093183696E-1,-2.403230220E-2,4.246549308E-1
1.551871125E0,3.610879183E-1,-2.628360987E-1,4.912922978E-1
1.561899125E0,5.361247659E-1,-3.015214503E-1,4.959023893E-1
1.571927125E0,6.971533298E-1,-2.152017355E-1,3.701719046E-1
1.581955125E0,8.196444511E-1,-1.257807612E-1,2.549389899E-1
1.591983125E0,8.880328536E-1,6.786865182E-3,1.990147382E-1
1.602011125E0,8.504781723E-1,3.426189348E-2,2.187207192E-1
1.612039125E0,8.495607376E-1,1.442126185E-1,1.756576747E-1
1.622067125E0,8.485343456E-1,1.017852724E-1,5.594134703E-2
1.632095125E0,7.598170042E-1,3.490451723E-2,8.603932709E-2
1.642123125E0,6.495063901E-1,6.018217281E-2,2.032963187E-1
1.652150125E0,6.310568452E-1,1.878493093E-2,2.865493894E-1
1.662178125E0,8.814954758E-1,3.530239165E-1,5.151916146E-1
1.672206125E0,1.245812297E0,5.223000050E-1,7.830110788E-1
1.682235000E0,1.360634327E0,4.639631808E-1,1.001814842E0
1.692263000E0,1.262928843E0,2.370144576E-1,1.133076191E0
1.702291000E0,1.163278580E0,6.887286156E-2,1.255231977E0
1.712319000E0,1.148524165E0,1.055243462E-1,1.270953417E0
1.722347000E0,1.183112979E0,2.091183811E-1,1.214187503E0
1.732375000E0,1.211464524E0,2.759871781E-1,1.186294913E0
1.742403000E0,1.206628680E0,4.875111580E-1,1.112434268E0
1.752431000E0,1.142696023E0,6.434959173E-1,1.010011196E0
1.762459000E0,1.091618180E0,7.569383383E-1,1.026188374E0
1.772487000E0,1.060667276E0,7.328604460E-1,1.138708472E0
1.782515000E0,9.939485192E-1,5.469028354E-1,1.045268416E0
1.792542000E0,9.261080027E-1,8.265347481E-1,1.095547557E0
1.802570000E0,8.280986547E-1,1.002958775E0,1.109701753E0
1.812598000E0,6.885783076E-1,1.260543942E0,9.785196185E-1
1.822626000E0,6.321326494E-1,1.507939339E0,8.075299859E-1
1.832654000E0,6.305955052E-1,1.556906939E0,7.528126836E-1
1.842682000E0,5.764402151E-1,1.422105670E0,7.919822335E-1
1.852710000E0,4.719529450E-1,1.256546497E0,9.581759572E-1
1.862738000E0,4.300324917E-1,9.985921979E-1,1.304156184E0
1.872766000E0,4.310833812E-1,7.167296410E-1,1.773782015E0
1.882794000E0,5.440109968E-1,6.245366335E-1,2.384991884E0
1.892822000E0,6.180572510E-1,4.643807709E-1,2.921090126E0
1.902850000E0,5.427632928E-1,1.735966057E-1,3.474807024E0
1.912878000E0,4.243010879E-1,-3.220262751E-2,4.022037983E0
1.922906000E0,2.798246741E-1,-3.395732343E-1,4.515023708E0
1.932934000E0,1.962783784E-1,-5.812492371E-1,4.962497711E0
1.942961000E0,2.206982672E-1,-5.077960491E-1,5.051242828E0
1.952989000E0,2.638052702E-1,-2.309716493E-1,4.627041817E0
1.963017000E0,1.976975650E-1,1.792347878E-1,4.160474777E0
1.973045000E0,1.963568479E-2,3.326613903E-1,3.938448906E0
1.983073000E0,-1.845371127E-1,6.354680657E-2,4.160447121E0
1.993101000E0,-3.272646964E-1,-1.274116933E-1,4.809319496E0
2.003129000E0,-3.554460108E-1,-4.115054607E-1,5.374999046E0
2.013157000E0,-2.711454928E-1,-4.263001382E-1,5.560818195E0
2.023185000E0,-1.663700640E-1,-3.358210921E-1,5.443027496E0
2.033213000E0,-5.073640496E-2,-6.484817713E-2,5.322536945E0
2.043241000E0,2.521940134E-2,2.050251216E-1,5.309326649E0
2.053269000E0,1.232144088E-1,4.490540326E-1,5.490450859E0
2.063297000E0,2.750268877E-1,7.053867579E-1,5.699117661E0
2.073325000E0,3.719017804E-1,6.881001592E-1,5.825149536E0
2.083352000E0,5.547897220E-1,7.907636762E-1,5.978284836E0
2.093380000E0,7.453029156E-1,5.891703963E-1,6.214242458E0
2.103408000E0,9.331495762E-1,5.460772514E-1,6.766999245E0
2.113436000E0,1.155828238E0,6.372044683E-1,7.406542778E0
2.123464000E0,1.494670987E0,5.761371255E-1,7.815820694E0
2.133492000E0,1.932751179E0,6.585036516E-1,7.919425011E0
2.143520000E0,2.257261753E0,8.550912738E-1,7.816350937E0
2.153548000E0,2.517757416E0,1.407849550E0,7.679235935E0
2.163576000E0,2.628813505E0,1.830502510E0,7.562698364E0
2.173604000E0,3.062909603E0,2.491837263E0,7.541452885E0
2.183632000E0,3.654688358E0,2.536727667E0,7.527729034E0
2.193660000E0,4.140284538E0,2.136601686E0,7.252306938E0
2.203688000E0,4.523629189E0,2.149248600E0,6.843716621E0
2.213716000E0,4.931830406E0,2.276408672E0,6.440423012E0
2.223744000E0,5.385951042E0,2.224044800E0,6.150001526E0
2.233771000E0,5.676399708E0,2.454951525E0,5.875221729E0
2.243799000E0,5.782935143E0,3.176053286E0,5.563895226E0
2.253827000E0,5.678406715E0,4.017067432E0,5.358688831E0
2.263855000E0,5.383986473E0,4.477552414E0,5.159539700E0
2.273883000E0,4.985391140E0,4.326771736E0,4.763085842E0
2.283911000E0,4.055070400E0,4.777901173E0,4.480315685E0
2.293939000E0,1.905562520E0,2.334364653E0,4.415685177E0
2.303967000E0,-1.138881922E0,1.165212870E0,3.619257927E0
2.313995000E0,-1.838752866E0,1.409685016E0,3.460870504E0
2.324023000E0,-8.997443318E-1,1.385119438E0,3.656271935E0
2.334051000E0,1.010028645E-1,2.142487049E0,3.860394478E0
2.344079000E0,8.473753929E-1,3.113080025E0,4.018585682E0
2.354107000E0,7.669881582E-1,3.357618809E0,3.871360540E0
2.364135000E0,3.351720572E-1,2.986067057E0,3.448308706E0
2.374162000E0,7.641533017E-2,2.904508114E0,2.881516695E0
2.384190000E0,-7.282689214E-3,2.496542454E0,2.627525806E0
2.394218000E0,2.873808146E-3,1.854695439E0,2.708946228E0
2.404246000E0,1.570154876E-1,1.251520872E0,2.811928034E0
2.414274000E0,4.055821300E-1,1.073203087E0,2.739191294E0
2.424302000E0,7.270833254E-1,1.357077122E0,2.553206205E0
2.434330000E0,1.095383406E0,2.084950924E0,2.440038204E0
2.444358000E0,1.453744054E0,2.767477751E0,2.555970907E0
2.454386000E0,1.701864362E0,3.214614153E0,2.866567850E0
2.464414000E0,1.685802579E0,3.036468983E0,3.045836449E0
2.474442000E0,1.100283742E0,2.436157465E0,2.926257849E0
2.484470000E0,2.349278033E-1,1.934650898E0,2.585091352E0
2.494498000E0,-4.937540889E-1,1.620260954E0,2.149433851E0
2.504526000E0,-7.744626999E-1,1.568225861E0,1.595808148E0
2.514554000E0,-5.273570418E-1,1.693110347E0,1.209605575E0
2.524581000E0,-1.064359620E-1,1.865248799E0,9.968523383E-1
2.534609000E0,3.278196156E-1,1.913829565E0,8.869208097E-1
2.544637000E0,6.697833538E-1,1.796500087E0,8.452584743E-1
2.554665000E0,9.320951104E-1,1.172809362E0,8.108813167E-1
2.564693000E0,9.148944616E-1,6.322462559E-1,7.995493412E-1
2.574721000E0,5.807255507E-1,4.863510430E-1,8.669131994E-1
2.584749000E0,4.009255767E-2,6.412533522E-1,1.007119894E0
2.594777000E0,-4.707866907E-1,8.073903918E-1,1.152611136E0
2.604805000E0,-8.408322930E-1,7.361193895E-1,1.227402091E0
2.614833000E0,-9.945068359E-1,5.413344502E-1,1.174049973E0
2.624861000E0,-9.511243701E-1,6.894186735E-1,1.015179276E0
2.634889000E0,-7.286979556E-1,1.249802470E0,8.379765153E-1
2.644917000E0,-3.606981039E-1,1.972602725E0,7.269663215E-1
2.654945000E0,3.626067657E-3,2.098942041E0,7.122265100E-1
2.664973000E0,1.013510004E-1,1.244702935E0,7.308521867E-1
2.675000000E0,-2.180448323E-1,1.433692127E-1,6.491588950E-1
2.685027417E0,-6.387954950E-1,-5.278794765E-1,3.477476239E-1
2.695055417E0,-1.023347974E0,-3.088136911E-1,2.717067301E-2
2.705083417E0,-1.275130272E0,-1.354214102E-1,-1.361865252E-1
2.715111417E0,-1.259093046E0,-3.556112945E-1,-1.897890419E-1
2.725139417E0,-9.745657444E-1,-6.415738463E-1,-1.724867523E-1
2.735167417E0,-4.843600690E-1,-7.209112644E-1,-2.205123305E-1
2.745195417E0,4.926092923E-2,-5.321285725E-1,-3.194658458E-1
2.755223417E0,4.224123955E-1,-1.280138344E-1,-1.726841182E-1
2.765251417E0,4.975999296E-1,8.794110268E-2,2.535853088E-1
2.775279417E0,3.059410155E-1,1.120520309E-1,7.539285421E-1
2.785307417E0,3.139575571E-2,1.992848329E-2,1.052877665E0
2.795335417E0,-1.515194625E-1,-1.390193552E-1,1.041195393E0
2.805363417E0,-1.788069606E-1,-2.988665402E-1,7.415880561E-1
2.815390417E0,-1.438878626E-1,-4.016549885E-1,4.499796629E-1
2.825418417E0,-1.114046797E-1,-3.238323331E-1,3.839219213E-1
2.835446417E0,-9.419959038E-2,-1.413639933E-1,4.991848469E-1
2.845474417E0,-1.292744130E-1,2.281179130E-1,7.162405849E-1
2.855502417E0,-1.857169122E-1,4.245612025E-1,9.485555887E-1
2.865530417E0,-1.886404753E-1,4.703372121E-1,1.114912391E0
2.875558417E0,-7.324249297E-2,2.175531685E-1,1.194921017E0
2.885586417E0,1.466739774E-1,-1.318711638E-1,1.229467273E0
2.895614417E0,3.929135799E-1,-5.395441651E-1,1.256070375E0
2.905642417E0,5.669482946E-1,-8.326460719E-1,1.255893707E0
2.915670417E0,6.073343158E-1,-8.730986714E-1,1.245591521E0
2.925698417E0,5.322467089E-1,-8.372772336E-1,1.267714977E0
2.935726417E0,3.382922113E-1,-7.148339152E-1,1.279915690E0
2.945754417E0,2.132429183E-2,-3.977614343E-1,1.285877705E0
2.955782417E0,-3.316316307E-1,-6.860271096E-2,1.262257814E0
2.965809417E0,-5.885908008E-1,7.412009686E-2,1.186380625E0
2.975837417E0,-6.996906996E-1,-1.472215727E-2,1.102979541E0
2.985865417E0,-6.527595520E-1,-2.157135904E-1,1.004938006E0
2.995893417E0,-4.420148730E-1,-4.027665555E-1,9.509914517E-1
3.005921417E0,-1.456222981E-1,-6.213425994E-1,1.009915590E0
3.015949417E0,1.939866543E-1,-5.701896548E-1,1.161035538E0
3.025977417E0,4.909218550E-1,-5.851517916E-1,1.376746774E0
3.036005417E0,5.949838161E-1,-1.131883144E0,1.556903243E0
3.046033417E0,4.978656173E-1,-1.438731194E0,1.504924178E0
3.056061417E0,2.559024990E-1,-1.449687123E0,1.396601200E0
3.066089417E0,3.745392663E-3,-1.467896938E0,1.351609468E0
3.076117417E0,-1.900046468E-1,-1.430908561E0,1.398090720E0
3.086145417E0,-2.427107394E-1,-1.440966845E0,1.553672671E0
3.096173417E0,-5.687695742E-2,-1.699301720E0,1.770645738E0
3.106201417E0,3.207058012E-1,-2.173784494E0,2.015926123E0
3.116228417E0,8.149498701E-1,-2.736120462E0,2.304823399E0
3.126256417E0,1.383420229E0,-3.312919378E0,2.688685417E0
3.136284417E0,1.921771049E0,-3.889171600E0,3.054205656E0
3.146312417E0,2.326818705E0,-4.393644810E0,3.370718956E0
3.156340417E0,2.700448036E0,-4.452738762E0,3.771223307E0
3.166368417E0,2.852946043E0,-4.651154518E0,4.102597713E0
3.176396417E0,2.754221916E0,-4.778029919E0,4.393335342E0
3.186424417E0,2.544031620E0,-4.979856014E0,4.694121361E0
3.196452417E0,2.357073784E0,-5.342810154E0,5.033178329E0
3.206480417E0,2.189643860E0,-5.725307465E0,5.421810627E0
3.216508417E0,2.016046047E0,-5.981278896E0,5.807415009E0
3.226536417E0,1.776961923E0,-6.156027794E0,6.084639072E0
3.236564417E0,1.492543459E0,-6.375544548E0,6.236710548E0
3.246592417E0,1.460219502E0,-6.688091278E0,6.330923557E0
3.256620417E0,1.782349110E0,-6.983892441E0,6.378688812E0
3.266647417E0,2.143691778E0,-6.747335911E0,6.409833908E0
3.276675417E0,2.384791374E0,-5.957701683E0,6.482102394E0
3.286703417E0,2.439943075E0,-5.053005219E0,6.452176571E0
3.296731417E0,2.351297379E0,-4.307169437E0,6.242500305E0
3.306759417E0,2.263830185E0,-3.856065750E0,5.972132206E0
3.316787417E0,2.340790510E0,-3.603272200E0,5.688186646E0
3.326815417E0,2.628341913E0,-3.462203503E0,5.374234676E0
3.336843417E0,3.159139872E0,-3.428456306E0,4.906358242E0
3.346871417E0,3.776353359E0,-3.321816921E0,4.385934830E0
3.356899417E0,4.141184330E0,-3.029191017E0,3.959937096E0
