"Time (s)","X (rad/s)","Y (rad/s)","Z (rad/s)"
4.645583336E-3,4.242303967E-2,-2.514779270E-1,8.454127610E-2
1.461858331E-2,-8.638128638E-2,-3.589492440E-1,1.295902431E-1
2.459158329E-2,-1.923809946E-1,-4.774715304E-1,1.801667958E-1
3.456358332E-2,-2.752377689E-1,-5.280454755E-1,2.216061056E-1
4.453658330E-2,-3.487641811E-1,-5.267871022E-1,2.589238882E-1
5.450858333E-2,-4.296872616E-1,-4.949468970E-1,3.184340894E-1
6.448158331E-2,-5.311821103E-1,-5.110875964E-1,3.952861130E-1
7.445458334E-2,-6.186163425E-1,-6.145673990E-1,4.159048498E-1
8.442758332E-2,-6.590776443E-1,-7.491548657E-1,4.357377887E-1
9.439945832E-2,-5.353085399E-1,-7.024590373E-1,4.177811742E-1
1.043724583E-1,-3.170123994E-1,-6.626997590E-1,4.243370593E-1
1.143454583E-1,-1.778827310E-1,-6.883209944E-1,4.271863699E-1
1.243174583E-1,-7.938412577E-2,-6.675367951E-1,3.749011159E-1
1.342904583E-1,-5.045979284E-3,-6.202135086E-1,2.948124111E-1
1.442634583E-1,1.155673638E-1,-5.761213899E-1,2.151654512E-1
1.542354583E-1,2.294547856E-1,-5.184519291E-1,1.533028781E-1
1.642084583E-1,2.824587524E-1,-4.637520611E-1,9.766761959E-2
1.741814583E-1,2.327471524E-1,-3.912525773E-1,5.175391585E-2
1.841534583E-1,9.781765938E-2,-3.542002141E-1,7.512673736E-2
1.941264583E-1,-8.007191122E-2,-3.658638000E-1,1.262064278E-1
2.040994583E-1,-2.324948907E-1,-3.785023093E-1,1.611795276E-1
2.140714583E-1,-3.014691770E-1,-4.133750498E-1,1.748367399E-1
2.240444583E-1,-3.308671713E-1,-4.888864756E-1,1.726832688E-1
2.340174583E-1,-3.807561696E-1,-5.344209671E-1,1.668544114E-1
2.439894583E-1,-4.625366926E-1,-5.292494893E-1,1.515514255E-1
2.539624583E-1,-5.564632416E-1,-4.634680748E-1,1.459760964E-1
2.639354583E-1,-6.288379431E-1,-3.546530902E-1,1.323288232E-1
2.739074583E-1,-6.762744188E-1,-2.503919303E-1,7.828048617E-2
2.838804583E-1,-6.714727879E-1,-1.805663258E-1,-1.225778181E-2
2.938534583E-1,-6.217840314E-1,-1.669341475E-1,-1.211365983E-1
3.038254583E-1,-5.516173840E-1,-1.502434462E-1,-2.296679020E-1
3.137984583E-1,-5.155584812E-1,-1.122470498E-1,-3.163942695E-1
3.237714583E-1,-5.013851523E-1,-7.023272663E-2,-3.442102075E-1
3.337434583E-1,-5.048887730E-1,-4.288872331E-2,-3.269492090E-1
3.437164583E-1,-5.153389573E-1,-4.908766970E-2,-2.900534868E-1
3.536894583E-1,-5.303781033E-1,-7.037032396E-2,-2.467600703E-1
3.636614583E-1,-5.230112672E-1,3.345135972E-2,-2.105492204E-1
3.736344583E-1,-4.561709762E-1,1.930892318E-1,-1.937683821E-1
3.836074583E-1,-3.726322055E-1,3.226846457E-1,-2.136620879E-1
3.935794583E-1,-3.127249181E-1,3.876841366E-1,-2.659457922E-1
4.035524583E-1,-2.963863909E-1,3.859805465E-1,-2.829560637E-1
4.135254583E-1,-3.293499351E-1,2.661220431E-1,-2.485357374E-1
4.234974583E-1,-3.899222612E-1,9.075157344E-2,-1.941590756E-1
4.334704583E-1,-4.548029900E-1,-9.072580189E-2,-1.404236704E-1
4.434434583E-1,-5.281498432E-1,-2.016976476E-1,-7.181946188E-2
4.534154583E-1,-5.764124393E-1,-2.184609026E-1,-3.522256762E-2
4.633884583E-1,-5.714243054E-1,-1.585009843E-1,-5.496073142E-2
4.733614583E-1,-4.907105267E-1,-9.951410443E-2,-1.259638071E-1
4.833334583E-1,-3.902734220E-1,-9.668724984E-2,-2.038429976E-1
4.933064583E-1,-3.011763096E-1,-1.161147431E-1,-2.360328883E-1
5.032794583E-1,-2.297582924E-1,-9.416272491E-2,-2.132391632E-1
5.132514583E-1,-1.861929744E-1,-8.972030133E-2,-1.633488387E-1
5.232244583E-1,-1.742033809E-1,-1.246236414E-1,-1.195262969E-1
5.331974583E-1,-1.936548501E-1,-1.463092268E-1,-1.113165691E-1
5.431694583E-1,-2.334985435E-1,-7.024882734E-2,-1.553485096E-1
5.531424583E-1,-2.576904297E-1,5.493438616E-2,-2.264277488E-1
5.631154583E-1,-2.729865909E-1,1.290776581E-1,-2.866330743E-1
5.730874583E-1,-3.131366670E-1,1.456049681E-1,-3.228661716E-1
5.830604583E-1,-3.598001301E-1,1.457328647E-1,-3.253790736E-1
5.930334583E-1,-3.699281216E-1,1.738902032E-1,-3.094784021E-1
6.030054583E-1,-3.424680829E-1,2.449522018E-1,-3.202438056E-1
6.129784583E-1,-3.365784883E-1,2.873803377E-1,-3.934165537E-1
6.229514583E-1,-3.233206272E-1,3.014869690E-1,-5.266960859E-1
6.329234583E-1,-2.745727897E-1,2.895490825E-1,-6.969721913E-1
6.428964583E-1,-2.173942029E-1,2.252402604E-1,-8.159568906E-1
6.528694583E-1,-1.816910654E-1,3.807810321E-2,-8.777158856E-1
6.628414583E-1,-1.712065637E-1,-3.289142251E-1,-9.060650468E-1
6.728144583E-1,-1.729349643E-1,-7.204064131E-1,-9.047438502E-1
6.827874583E-1,-1.606314629E-1,-9.545074105E-1,-7.743897438E-1
6.927594583E-1,-1.869091392E-1,-9.895274639E-1,-6.169266105E-1
7.027324583E-1,-3.331264257E-1,-8.691759706E-1,-5.981363058E-1
7.127054583E-1,-5.601971149E-1,-6.607926488E-1,-7.094891667E-1
7.226774583E-1,-8.126168251E-1,-4.265148342E-1,-7.912552953E-1
7.326504583E-1,-1.029352427E0,-2.805349827E-1,-8.055825830E-1
7.426234583E-1,-1.211428404E0,-1.830537617E-1,-7.846550941E-1
7.525954583E-1,-1.302268624E0,-1.493266970E-1,-7.659948468E-1
7.625684583E-1,-1.307155848E0,-8.455137908E-2,-8.155210018E-1
7.725414583E-1,-1.283547640E0,-5.291976966E-3,-8.366827369E-1
7.825134583E-1,-1.277603626E0,1.014361903E-2,-8.760312200E-1
7.924864583E-1,-1.313315511E0,-9.710779414E-3,-9.297756553E-1
8.024594583E-1,-1.371229649E0,-7.353213429E-2,-9.907647371E-1
8.124314583E-1,-1.396579027E0,-9.109088778E-2,-1.057557583E0
8.224044583E-1,-1.341154695E0,-1.893446296E-1,-1.125253320E0
8.323774583E-1,-1.200857520E0,-4.242964089E-1,-1.186914563E0
8.423494583E-1,-9.572027922E-1,-6.267595887E-1,-1.285112262E0
8.523224583E-1,-7.231514454E-1,-7.241402268E-1,-1.406243443E0
8.622954583E-1,-5.866615772E-1,-7.928620577E-1,-1.511358380E0
8.722674583E-1,-5.334609151E-1,-8.742759824E-1,-1.590326190E0
8.822404583E-1,-5.135809779E-1,-9.437189698E-1,-1.613094568E0
8.922134583E-1,-5.379920006E-1,-9.050741196E-1,-1.545365572E0
9.021854583E-1,-6.225913167E-1,-9.027372599E-1,-1.412459493E0
9.121584583E-1,-7.259851098E-1,-9.746738076E-1,-1.226603031E0
9.221314583E-1,-8.143607378E-1,-1.089821577E0,-1.115871906E0
9.321044583E-1,-8.907066584E-1,-1.257306218E0,-1.116834641E0
9.420764583E-1,-9.468435049E-1,-1.541254282E0,-1.197561145E0
9.520494583E-1,-9.849562645E-1,-1.992142916E0,-1.324585676E0
9.620224583E-1,-1.027078390E0,-2.559800386E0,-1.447245598E0
9.719944583E-1,-9.842975736E-1,-2.990803957E0,-1.475679636E0
9.819674583E-1,-5.722985268E-1,-3.338326693E0,-1.505442739E0
9.919394583E-1,8.366418630E-2,-3.255309582E0,-1.378001690E0
1.001912458E0,7.852259874E-1,-2.849897385E0,-9.915233850E-1
1.011885458E0,1.293403864E0,-2.503378630E0,-4.939410686E-1
1.021857458E0,1.453004479E0,-2.433257818E0,-8.127027191E-3
1.031830458E0,1.287837625E0,-2.559956312E0,4.809198976E-1
1.041803458E0,8.798319101E-1,-2.659399986E0,8.733115196E-1
1.051776458E0,3.913729787E-1,-2.607950449E0,1.088346720E0
1.061748458E0,-5.843100697E-2,-2.666856289E0,1.138566136E0
1.071721458E0,-3.921692967E-1,-2.901536703E0,1.130696058E0
1.081694458E0,-5.498136878E-1,-3.161970139E0,1.096625566E0
1.091666458E0,-4.524163604E-1,-3.174513578E0,1.022354007E0
1.101639458E0,-1.384501010E-1,-2.871138811E0,9.813741446E-1
1.111612458E0,2.746075094E-1,-2.425984621E0,1.109721661E0
1.121584458E0,6.177408695E-1,-1.827201843E0,1.346552968E0
1.131557458E0,7.719640136E-1,-1.340134144E0,1.625246286E0
1.141530458E0,7.083734870E-1,-1.106747031E0,1.889856339E0
1.151502458E0,4.945922196E-1,-1.109868765E0,2.118259430E0
1.161475458E0,2.361473292E-1,-1.221897840E0,2.236053228E0
1.171448458E0,-7.869423181E-2,-1.404934764E0,2.188865662E0
1.181420458E0,-4.100872278E-1,-1.751254916E0,1.968536735E0
1.191393458E0,-7.116355896E-1,-2.163669348E0,1.648924589E0
1.201366458E0,-9.453999996E-1,-2.423794746E0,1.355023623E0
1.211338458E0,-9.648376107E-1,-2.622645617E0,1.243664265E0
1.221311458E0,-4.082842171E-1,-2.351559877E0,1.400318742E0
1.231284458E0,1.717986017E-1,-1.742285252E0,1.551016331E0
1.241256458E0,3.561467230E-1,-1.517929912E0,1.731374145E0
1.251229458E0,1.851875037E-1,-1.451923966E0,1.885411978E0
1.261202458E0,-1.432594508E-1,-1.489970922E0,1.998634100E0
1.271174458E0,-4.520191550E-1,-1.576228619E0,2.070383787E0
1.281147458E0,-6.409883499E-1,-1.697934270E0,2.071646214E0
1.291120458E0,-6.384977698E-1,-1.788863182E0,2.017744303E0
1.301092458E0,-4.700824320E-1,-1.764950514E0,1.928838730E0
1.311065458E0,-2.516145408E-1,-1.583008409E0,1.861750603E0
1.321038458E0,-7.580308616E-2,-1.298846602E0,1.859323144E0
1.331010458E0,2.564955037E-3,-9.699904919E-1,1.903616309E0
1.340983458E0,-3.963641077E-2,-6.700845957E-1,1.973011851E0
1.350956458E0,-1.366098374E-1,-4.752701223E-1,2.031189919E0
1.360928458E0,-2.323157787E-1,-3.444833159E-1,2.037096739E0
1.370901458E0,-2.586711943E-1,-1.858587861E-1,1.965213776E0
1.380874458E0,-2.049522102E-1,4.182948545E-2,1.822994828E0
1.390846458E0,-9.208929539E-2,3.468753994E-1,1.637531519E0
1.400819458E0,9.274351411E-3,6.622743011E-1,1.469333410E0
1.410792458E0,2.341227420E-2,9.364962578E-1,1.355386853E0
1.420764458E0,-2.174572088E-2,1.108596206E0,1.278488040E0
1.430737458E0,-9.103291482E-2,1.245248318E0,1.192731142E0
1.440710458E0,-1.999156475E-1,1.188047171E0,9.947320223E-1
1.450682458E0,-5.336099863E-1,9.169963002E-1,5.722801089E-1
1.460655458E0,-7.470262647E-1,8.866608143E-1,2.744075060E-1
1.470628458E0,-8.434196115E-1,8.326239586E-1,-5.631049722E-2
1.480600458E0,-9.234216213E-1,7.670641541E-1,-4.008167088E-1
1.490573458E0,-9.932116866E-1,7.737526298E-1,-6.609646678E-1
1.500546458E0,-9.916916490E-1,8.438396454E-1,-7.631664872E-1
1.510518458E0,-9.545294046E-1,9.111017585E-1,-7.439222336E-1
1.520491458E0,-9.257497191E-1,9.277723432E-1,-6.706649661E-1
1.530464458E0,-8.848252296E-1,8.985151052E-1,-6.053065062E-1
1.540436458E0,-8.511925340E-1,7.956436872E-1,-5.560319424E-1
1.550409458E0,-7.555339336E-1,5.992299914E-1,-5.289507508E-1
1.560382458E0,-5.556964278E-1,3.500520289E-1,-5.036787391E-1
1.570354458E0,-2.910509408E-1,1.495681852E-1,-4.458971620E-1
1.580327458E0,-5.822714418E-2,-3.980040178E-2,-3.406189084E-1
1.590300458E0,6.698244065E-2,-2.520833611E-1,-2.702707052E-1
1.600272458E0,8.702503890E-2,-4.271658361E-1,-2.347908318E-1
1.610245458E0,1.176517457E-2,-3.946100175E-1,-2.424077392E-1
1.620218458E0,-1.622768939E-1,-2.290335149E-1,-2.683088779E-1
1.630190458E0,-4.196628928E-1,-1.733457670E-2,-3.040990829E-1
1.640163458E0,-7.024971843E-1,2.982456386E-1,-3.581511974E-1
1.650136458E0,-9.772205949E-1,5.086462498E-1,-3.945470452E-1
1.660108458E0,-1.141438842E0,6.992263198E-1,-4.216766357E-1
1.670081458E0,-1.147976875E0,7.548922300E-1,-3.208123446E-1
1.680054458E0,-1.024077654E0,7.635699511E-1,-3.104862869E-1
1.690026458E0,-9.586968422E-1,6.069710255E-1,-2.537508309E-1
1.699999458E0,-9.337522388E-1,5.463201404E-1,-1.477084756E-1
1.709972458E0,-8.525114655E-1,4.603604972E-1,-7.513546944E-2
1.719944458E0,-7.214189172E-1,3.823235929E-1,-3.109519742E-2
1.729917458E0,-6.008216739E-1,4.924250543E-1,-2.387909405E-2
1.739890458E0,-4.341144860E-1,7.549231052E-1,-9.516426176E-2
1.749862458E0,-3.164498806E-1,8.956077695E-1,-1.528177112E-1
1.759835458E0,-2.126045823E-1,1.012116790E0,-1.648933440E-1
1.769808458E0,-5.463678390E-2,1.206882000E0,-1.727182567E-1
1.779780458E0,7.232119143E-2,1.348088503E0,-1.667396128E-1
1.789753458E0,8.525829762E-2,1.477878690E0,-1.362831742E-1
1.799726458E0,5.897668749E-2,1.681507111E0,-6.191953644E-2
1.809698458E0,-1.084579900E-2,1.838503361E0,6.453507394E-2
1.819671458E0,-2.422952801E-1,1.892403364E0,2.443295270E-1
1.829644458E0,-5.179292560E-1,1.958314776E0,3.740257323E-1
1.839616458E0,-5.229357481E-1,2.185548782E0,4.100014567E-1
1.849589458E0,-3.089523613E-1,2.260625601E0,4.280206561E-1
1.859562458E0,-1.505276114E-1,2.112858534E0,3.998692036E-1
1.869534458E0,1.087628081E-1,2.016173840E0,3.550455570E-1
1.879507458E0,1.591303945E-1,1.587219000E0,3.632247746E-1
1.889480458E0,1.213776916E-1,1.238728404E0,4.446533024E-1
1.899452458E0,1.138662770E-1,1.006821513E0,5.391045213E-1
1.909425458E0,2.144725174E-1,7.702529430E-1,6.273526549E-1
1.919398458E0,2.969394624E-1,5.129058957E-1,7.144469619E-1
1.929371458E0,3.228624165E-1,2.431316972E-1,7.120671272E-1
1.939343458E0,4.737344086E-1,1.214907393E-1,6.918678880E-1
1.949316458E0,7.146894932E-1,1.404266059E-1,7.083227634E-1
1.959289458E0,9.349130392E-1,-7.126884907E-2,6.608167291E-1
1.969261458E0,7.850899696E-1,-6.986070871E-1,5.111470819E-1
1.979234458E0,5.374897718E-1,-9.680731893E-1,3.514501154E-1
1.989207458E0,3.675582409E-1,-1.114325762E0,2.343144119E-1
1.999179458E0,3.421112597E-1,-1.170152068E0,2.092820257E-1
2.009152458E0,3.779366314E-1,-1.267599344E0,2.272972465E-1
2.019125458E0,3.742948174E-1,-1.344725251E0,2.237521559E-1
2.029097458E0,2.868922651E-1,-1.327765942E0,1.905912757E-1
2.039070458E0,1.371881813E-1,-1.167355895E0,1.090572774E-1
2.049043458E0,-7.869803905E-2,-1.068109512E0,-2.855438739E-2
2.059015458E0,-2.509635687E-1,-1.067577481E0,-2.047669291E-1
2.068988458E0,-2.982581258E-1,-1.161634803E0,-2.103337348E-1
2.078961458E0,-2.864560783E-1,-1.246547937E0,-1.519911736E-1
2.088934083E0,-3.750117719E-1,-1.455007434E0,-3.043878973E-1
2.098907083E0,-4.874362051E-1,-1.545250297E0,-3.258490860E-1
2.108880083E0,-6.416675448E-1,-1.425954103E0,-3.541065454E-1
2.118852083E0,-8.029876351E-1,-1.334935069E0,-2.446231097E-1
2.128825083E0,-9.716456532E-1,-9.591636062E-1,-6.059814617E-2
2.138798083E0,-1.211161494E0,-6.874539256E-1,1.163558215E-1
2.148770083E0,-1.490143061E0,-7.349066138E-1,2.439124435E-1
2.158743083E0,-1.716047764E0,-8.167153001E-1,1.392048597E-1
2.168716083E0,-1.872535825E0,-8.332641721E-1,-1.647494286E-1
2.178688083E0,-1.854182243E0,-5.063935518E-1,-2.519547641E-1
2.188661083E0,-1.871040225E0,-1.621920168E-1,-2.429415584E-1
2.198634083E0,-1.943966627E0,-9.153524786E-2,-2.353398651E-1
2.208606083E0,-1.928334355E0,-2.765868604E-1,-2.361894101E-1
2.218579083E0,-1.699511290E0,-3.652259111E-1,-2.690317631E-1
2.228552083E0,-1.394507527E0,-6.023449898E-1,-3.112378120E-1
2.238524083E0,-1.143966198E0,-8.675166965E-1,-3.839589655E-1
2.248497083E0,-9.693140388E-1,-1.039974451E0,-4.311722815E-1
2.258470083E0,-9.013708830E-1,-8.932044506E-1,-3.376499116E-1
2.268442083E0,-8.728255033E-1,-1.050738573E0,-1.813585907E-1
2.278415083E0,-7.872295380E-1,-1.564164400E0,1.042908151E-2
2.288388083E0,-5.699424744E-1,-2.034558773E0,2.663644254E-1
2.298360083E0,-2.925069332E-1,-2.286221266E0,5.081416965E-1
2.308333083E0,4.996041581E-2,-2.777245760E0,6.231313944E-1
2.318306083E0,3.829044104E-1,-2.995434046E0,5.911626816E-1
2.328278083E0,6.229149103E-1,-3.047365665E0,4.184130430E-1
2.338251083E0,7.361273170E-1,-2.775840282E0,2.570874989E-1
2.348224083E0,7.687276006E-1,-2.134743690E0,1.992233843E-1
2.358196083E0,6.690996885E-1,-1.422543645E0,4.229440987E-1
2.368169083E0,5.082690120E-1,-6.843450665E-1,1.020418406E0
2.378142083E0,3.160900772E-1,-5.158683285E-2,1.757734060E0
2.388114083E0,1.342614293E-1,3.992948830E-1,2.399620056E0
2.398087083E0,1.910788417E-1,4.441701174E-1,2.909049034E0
2.408060083E0,5.659610629E-1,2.887328565E-1,3.424249172E0
2.418032083E0,5.680923462E-1,-2.058807462E-1,3.500174284E0
2.428005083E0,9.029774070E-1,-4.836769104E-1,3.237744093E0
2.437978083E0,1.165209174E0,-6.506182551E-1,2.813253403E0
2.447950083E0,1.228181481E0,-8.496261239E-1,2.039293766E0
2.457923083E0,1.341970205E0,-8.782208562E-1,1.588075042E0
2.467896083E0,1.328430891E0,-7.298332453E-1,1.757471800E0
2.477868083E0,1.037170887E0,-2.316018343E-1,1.945981383E0
2.487841083E0,5.565466285E-1,4.040827453E-1,1.730754852E0
2.497814083E0,-1.340033412E-1,1.015773177E0,1.375733495E0
2.507786083E0,-8.321803212E-1,1.604576588E0,1.106153131E0
2.517759083E0,-1.318056703E0,1.957183480E0,9.576342702E-1
2.527732083E0,-1.518119693E0,2.051512003E0,8.738637567E-1
2.537704083E0,-1.580248952E0,1.834961295E0,7.737084031E-1
2.547677083E0,-1.511336446E0,1.537033200E0,5.879665017E-1
2.557650083E0,-1.418479085E0,1.359698057E0,4.153064787E-1
2.567622083E0,-1.347224593E0,1.114168644E0,3.085038662E-1
2.577595083E0,-1.282609582E0,9.698922634E-1,2.195018679E-1
2.587568083E0,-1.264246821E0,9.397401810E-1,1.412025243E-1
2.597540083E0,-1.300993085E0,8.382765055E-1,8.730457723E-2
2.607513083E0,-1.272672296E0,7.831959128E-1,1.961974949E-1
2.617486083E0,-1.144336343E0,8.914238811E-1,3.259440362E-1
2.627458083E0,-9.973162413E-1,9.623686075E-1,3.914577961E-1
2.637431083E0,-8.583750129E-1,9.937831759E-1,4.334874749E-1
2.647404083E0,-7.304040194E-1,8.933508396E-1,4.771031141E-1
2.657376083E0,-5.182110667E-1,6.996523142E-1,5.484079719E-1
2.667349083E0,-4.248938560E-1,6.543573141E-1,6.936812401E-1
2.677322083E0,-4.658104479E-1,3.940626085E-1,7.292069793E-1
2.687294083E0,-5.205743313E-1,4.762929305E-2,6.880648732E-1
2.697267083E0,-6.105596423E-1,-1.277047098E-1,6.753967404E-1
2.707240083E0,-7.592185736E-1,-1.472941339E-1,6.598396301E-1
2.717212083E0,-9.855368733E-1,-1.150103509E-1,6.310630441E-1
2.727185083E0,-1.256816864E0,-1.164820120E-1,5.891664624E-1
2.737158083E0,-1.533457398E0,-2.395292930E-2,5.596172214E-1
2.747130083E0,-1.809790730E0,1.826601624E-1,5.469989181E-1
2.757103083E0,-2.102663040E0,3.085660934E-1,5.736607313E-1
2.767076083E0,-2.385990143E0,3.136287630E-1,6.036114693E-1
2.777048083E0,-2.621235609E0,4.043049514E-1,6.354920268E-1
2.787021083E0,-2.791517019E0,4.757018983E-1,8.171086907E-1
2.796994083E0,-2.946091175E0,5.696465969E-1,9.978350997E-1
2.806966083E0,-3.026134968E0,5.947878957E-1,1.248950958E0
2.816939083E0,-3.044428349E0,6.157711148E-1,1.504570246E0
2.826912083E0,-3.076060534E0,6.867350340E-1,1.693931937E0
2.836884083E0,-3.129772902E0,6.338890791E-1,1.789242029E0
2.846857083E0,-3.000937223E0,6.082431078E-1,1.838593602E0
2.856830083E0,-2.529588699E0,7.063724399E-1,1.836468935E0
2.866802083E0,-1.781002164E0,6.423910856E-1,1.867532611E0
2.876775083E0,-7.231848836E-1,4.642969370E-1,1.945399880E0
2.886748083E0,1.991575360E-1,-1.878953911E-2,1.957517505E0
2.896720083E0,5.007284284E-1,-8.369941115E-1,1.754987955E0
2.906693083E0,2.795561254E-1,-1.331585407E0,1.365388513E0
2.916666083E0,2.252356894E-2,-9.066204429E-1,1.067439556E0
2.926638083E0,-5.070403963E-2,-1.525959224E-1,8.872085214E-1
2.936611083E0,-5.810809880E-2,1.129430681E-1,7.627638578E-1
2.946584083E0,-4.829355329E-2,6.329455972E-2,6.335020065E-1
2.956556083E0,-2.459330857E-2,-1.121950895E-1,5.033749342E-1
2.966529083E0,-1.099786907E-2,-6.377446651E-1,2.992334664E-1
2.976502083E0,2.479804307E-2,-5.684188008E-1,2.855407000E-1
2.986474083E0,1.149572358E-1,-4.021376371E-1,1.983557194E-1
2.996447083E0,3.825355694E-2,-1.898437440E-1,9.269979596E-2
3.006420083E0,-1.217906997E-1,-1.207933761E-2,-2.276980691E-2
3.016392083E0,-2.104948759E-1,2.077325732E-1,-1.339230388E-1
3.026365083E0,-1.225764602E-1,4.983497560E-1,-2.252375036E-1
3.036338083E0,5.992776714E-3,6.345260739E-1,-2.495233119E-1
3.046310083E0,4.037338495E-2,5.878344774E-1,-2.114172131E-1
3.056283083E0,6.341272499E-3,4.100441933E-1,-1.180163622E-1
3.066256083E0,-4.034633934E-2,1.394752711E-1,1.356936805E-2
3.076229083E0,-5.894454569E-2,-1.083921790E-1,1.403214484E-1
3.086201083E0,-1.034771465E-2,-2.559235692E-1,1.748296320E-1
3.096174125E0,8.364689350E-2,-2.574375570E-1,1.196645722E-1
3.106146125E0,1.832589805E-1,-1.603576392E-1,8.671473712E-3
3.116119125E0,2.573948801E-1,-7.052057981E-2,-7.869124413E-2
3.126092125E0,2.487033606E-1,-7.615555823E-2,-1.547937393E-1
3.136065125E0,1.961816996E-1,-3.331347555E-2,-1.719220579E-1
3.146037125E0,9.839442372E-2,4.367238656E-2,-2.073394358E-1
3.156010125E0,-1.100293025E-1,1.366124153E-1,-2.833817303E-1
3.165983125E0,-6.794728041E-1,2.912477851E-1,-4.364477098E-1
3.175955125E0,-1.483443379E0,2.993179858E-1,-6.688931584E-1
3.185928125E0,-1.855021954E0,9.364709258E-2,-7.749162316E-1
3.195901125E0,-1.671620607E0,-3.634611843E-3,-7.583105564E-1
3.205873125E0,-1.071450591E0,1.888730526E-1,-6.553980112E-1
3.215846125E0,-7.581949830E-1,3.615762889E-1,-5.724494457E-1
3.225819125E0,-6.979018450E-1,5.180684328E-1,-5.891506076E-1
3.235791125E0,-5.372226834E-1,5.606070161E-1,-6.551792622E-1
3.245764125E0,-4.315045178E-1,4.951614439E-1,-7.066352963E-1
3.255737125E0,-5.380831361E-1,3.134821355E-1,-7.293440104E-1
3.265709125E0,-4.691168666E-1,1.217164323E-1,-6.121734381E-1
3.275682125E0,-3.098225594E-1,6.502518803E-2,-4.390231669E-1
3.285655125E0,-2.994511425E-1,3.694074452E-1,-2.471640110E-1
