"Time (s)","X (rad/s)","Y (rad/s)","Z (rad/s)"
4.765583319E-3,4.984109402E-1,-1.304635704E-1,-1.145035699E-1
1.482558332E-2,4.349595308E-1,-9.635248780E-2,-1.711418182E-1
2.488558332E-2,3.373737633E-1,-1.007119492E-1,-1.950959712E-1
3.494558332E-2,2.041469961E-1,-1.473963708E-1,-2.020350993E-1
4.500558332E-2,3.561313823E-2,-2.021687329E-1,-1.877140999E-1
5.506558332E-2,-1.583089381E-1,-2.358654439E-1,-1.503877789E-1
6.512458331E-2,-3.469001651E-1,-2.550844252E-1,-8.214064687E-2
7.518458331E-2,-5.049439073E-1,-2.613604069E-1,1.513557043E-2
8.524458332E-2,-5.765609741E-1,-2.713036835E-1,8.187948167E-2
9.530458332E-2,-5.451939702E-1,-2.575271428E-1,1.031059399E-1
1.053645833E-1,-4.349456429E-1,-2.021281123E-1,1.152693033E-1
1.154245833E-1,-2.753695548E-1,-1.364050210E-1,1.222537085E-1
1.254845833E-1,-1.232938096E-1,-1.219599973E-2,1.304873526E-1
1.355445833E-1,-4.007961228E-2,1.495063454E-1,1.771267653E-1
1.456045833E-1,-2.360806614E-2,2.966494858E-1,2.478234172E-1
1.556645833E-1,-3.405404836E-2,4.017237127E-1,3.138301373E-1
1.657235833E-1,-5.269414559E-2,4.802012444E-1,3.926499486E-1
1.757835833E-1,-8.134389669E-2,5.256108046E-1,4.767041206E-1
1.858435833E-1,-1.086079329E-1,5.422196388E-1,5.503520370E-1
1.959035833E-1,-1.333518922E-1,5.477113128E-1,6.213803887E-1
2.059635833E-1,-1.530517638E-1,5.581443906E-1,6.981402040E-1
2.160235833E-1,-1.796128005E-1,6.250280738E-1,7.773261070E-1
2.260835833E-1,-2.118580043E-1,7.381924987E-1,8.657556176E-1
2.361435833E-1,-2.411058992E-1,8.626729250E-1,9.656137824E-1
2.462035833E-1,-2.677167058E-1,9.932159781E-1,1.080165625E0
2.562635833E-1,-2.796090245E-1,1.106487393E0,1.207180500E0
2.663225833E-1,-2.859540880E-1,1.161509156E0,1.325669885E0
2.763825833E-1,-3.032742143E-1,1.201700568E0,1.432237148E0
2.864425833E-1,-3.408292234E-1,1.243162155E0,1.528549671E0
2.965025833E-1,-3.863181472E-1,1.322114468E0,1.595197916E0
3.065625833E-1,-4.155038893E-1,1.426479459E0,1.619614124E0
3.166225833E-1,-4.157158732E-1,1.513950944E0,1.608202696E0
3.266825833E-1,-4.045118392E-1,1.503508568E0,1.481814623E0
3.367425833E-1,-3.687157333E-1,1.490081549E0,1.366277695E0
3.468025833E-1,-4.459279776E-1,1.289650083E0,1.235896111E0
3.568625833E-1,-5.735144019E-1,1.166449070E0,1.161077499E0
3.669215833E-1,-6.509670615E-1,1.154501319E0,1.086086154E0
3.769815833E-1,-6.978408098E-1,1.220692277E0,1.005294085E0
3.870415833E-1,-7.239675522E-1,1.301833034E0,9.149745107E-1
3.971015833E-1,-7.279625535E-1,1.290614486E0,7.171450853E-1
4.071615833E-1,-7.967346907E-1,1.004917741E0,2.237139195E-1
4.172215833E-1,-7.726658583E-1,1.064584017E0,-1.831284165E-1
4.272815833E-1,-5.596484542E-1,1.261830568E0,-3.916822970E-1
4.373415833E-1,-2.209966481E-1,1.303304195E0,-5.100752711E-1
4.474015833E-1,2.378146201E-1,1.348843217E0,-5.019912124E-1
4.574605833E-1,7.064079642E-1,1.418539762E0,-3.442593813E-1
4.675205833E-1,1.027397633E0,1.162802100E0,-2.275461853E-1
4.775805833E-1,1.108585477E0,8.563278913E-1,-1.529363990E-1
4.876405833E-1,9.877181649E-1,6.786842942E-1,-2.368389368E-1
4.977005833E-1,7.359445095E-1,4.911402464E-1,-4.154209197E-1
5.077605833E-1,5.334606767E-1,2.961435318E-1,-5.340320468E-1
5.178205833E-1,1.850768626E-1,1.370217800E-1,-5.135084391E-1
5.278805833E-1,-2.097535133E-1,9.943465889E-2,-3.552923501E-1
5.379405833E-1,-2.433282435E-1,-9.790323973E-1,3.743591905E-1
5.480005833E-1,-3.203918040E-1,-8.132103682E-1,1.340837002E0
5.580595833E-1,-4.415139556E-1,-8.773177266E-1,1.744826436E0
5.681195833E-1,-7.240310907E-1,-1.323739886E0,1.570167303E0
5.781795833E-1,-1.119915366E0,-1.559430957E0,1.274434447E0
5.882395833E-1,-1.554431796E0,-1.463463068E0,1.020341158E0
5.982995833E-1,-2.065379381E0,-1.314070225E0,8.314636946E-1
6.083595833E-1,-2.513931274E0,-1.330240011E0,6.858264208E-1
6.184195833E-1,-2.852368355E0,-1.448159695E0,5.742743015E-1
6.284795833E-1,-3.069484711E0,-1.526279807E0,4.927219152E-1
6.385395833E-1,-3.054116011E0,-1.476061702E0,4.041182697E-1
6.485995833E-1,-2.738767624E0,-1.068934917E0,3.260266483E-1
6.586585833E-1,-2.268074989E0,-5.193332434E-1,2.271213979E-1
6.687185833E-1,-1.844870090E0,-7.836662233E-2,-2.022700384E-2
6.787785833E-1,-1.617108226E0,3.326134384E-1,-3.771348000E-1
6.888385833E-1,-1.572094679E0,7.908768654E-1,-7.708694935E-1
6.988985833E-1,-1.618503213E0,1.211696029E0,-1.115448952E0
7.089585833E-1,-1.645479202E0,1.583536267E0,-1.357420921E0
7.190185833E-1,-1.643151283E0,1.903765917E0,-1.475601912E0
7.290785833E-1,-1.640011907E0,2.148257971E0,-1.458965540E0
7.391386667E-1,-1.663271427E0,2.276444435E0,-1.326985359E0
7.491986667E-1,-1.728099704E0,2.245102644E0,-1.131777167E0
7.592576667E-1,-1.816854119E0,2.092909098E0,-9.142810702E-1
7.693176667E-1,-1.932794094E0,1.850662470E0,-7.089631557E-1
7.793776667E-1,-2.054832935E0,1.608836055E0,-5.476275682E-1
7.894376667E-1,-2.132645369E0,1.409895301E0,-4.758188128E-1
7.994976667E-1,-2.174728394E0,1.245094895E0,-5.017606616E-1
8.095576667E-1,-2.199017525E0,1.174255610E0,-6.003344059E-1
8.196176667E-1,-2.196527719E0,1.201451778E0,-7.107096314E-1
8.296776667E-1,-2.128785133E0,1.276359320E0,-7.783111930E-1
8.397376667E-1,-2.016808987E0,1.364190102E0,-7.927599549E-1
8.497976667E-1,-1.891247749E0,1.483085752E0,-7.380608916E-1
8.598566666E-1,-1.785293818E0,1.640346527E0,-6.474587917E-1
8.699166666E-1,-1.708479285E0,1.772196293E0,-5.523868203E-1
8.799766666E-1,-1.687050700E0,1.848756313E0,-4.745804071E-1
8.900366666E-1,-1.689012766E0,1.954127312E0,-4.371690750E-1
9.000966666E-1,-1.670801759E0,2.123596191E0,-4.603026211E-1
9.101566667E-1,-1.614994526E0,2.298355341E0,-5.241417885E-1
9.202166667E-1,-1.545959592E0,2.476597548E0,-6.185567379E-1
9.302766667E-1,-1.488799214E0,2.629376650E0,-7.079896927E-1
9.403366667E-1,-1.441382170E0,2.711147785E0,-7.417031527E-1
9.503966667E-1,-1.409507632E0,2.722283363E0,-7.094894052E-1
9.604556666E-1,-1.386468887E0,2.688102722E0,-6.305351853E-1
9.705156666E-1,-1.366807580E0,2.632899046E0,-5.249891281E-1
9.805756666E-1,-1.354779363E0,2.595776081E0,-4.054741859E-1
9.906356666E-1,-1.347460628E0,2.590424061E0,-2.798437774E-1
1.000695667E0,-1.341221333E0,2.582484007E0,-1.459461600E-1
1.010755667E0,-1.333856106E0,2.523544073E0,-3.029137291E-2
1.020815667E0,-1.354382753E0,2.436229944E0,8.521737903E-2
1.030875667E0,-1.399451494E0,2.341826677E0,2.223339081E-1
1.040935667E0,-1.453359485E0,2.239145756E0,3.695560992E-1
1.050995667E0,-1.477645278E0,2.140679359E0,4.961709678E-1
1.061054667E0,-1.485123515E0,2.052830219E0,5.779164433E-1
1.071114667E0,-1.491141438E0,1.998168707E0,6.189883351E-1
1.081174667E0,-1.506981730E0,1.975836992E0,6.374105215E-1
1.091234667E0,-1.536434293E0,1.971902370E0,6.488392353E-1
1.101294667E0,-1.574371576E0,1.966560364E0,6.605709791E-1
1.111354667E0,-1.626752853E0,1.916859269E0,6.812201142E-1
1.121414667E0,-1.670768261E0,1.799440265E0,7.308864594E-1
1.131474667E0,-1.692738056E0,1.634856701E0,8.058140874E-1
1.141534667E0,-1.671906471E0,1.434512973E0,8.796270490E-1
1.151593667E0,-1.612540603E0,1.209911227E0,9.297786951E-1
1.161653667E0,-1.546642900E0,1.008406639E0,9.522363544E-1
1.171713667E0,-1.494699240E0,8.705683947E-1,9.322509766E-1
1.181773667E0,-1.472598910E0,7.996705174E-1,8.879098296E-1
1.191833667E0,-1.475123882E0,7.604727149E-1,8.491035104E-1
1.201893667E0,-1.489551902E0,7.365149260E-1,8.351491094E-1
1.211953667E0,-1.489050031E0,6.943315268E-1,8.431582451E-1
1.222013667E0,-1.459603190E0,6.115999222E-1,8.652930856E-1
1.232073667E0,-1.388137102E0,5.072417259E-1,8.895223737E-1
1.242133667E0,-1.288802505E0,4.370772839E-1,8.928798437E-1
1.252192667E0,-1.161945462E0,4.214769304E-1,8.651270866E-1
1.262252667E0,-1.038578749E0,4.270890057E-1,7.855353355E-1
1.272312667E0,-9.515413642E-1,4.448875189E-1,6.825082302E-1
1.282372667E0,-9.186971188E-1,4.825613797E-1,5.748507380E-1
1.292432667E0,-9.347078204E-1,5.399868488E-1,4.620807171E-1
1.302492667E0,-9.715175033E-1,5.986400843E-1,3.595319688E-1
1.312552667E0,-1.025375962E0,6.087527275E-1,2.849272788E-1
1.322612667E0,-1.086851001E0,5.625431538E-1,2.355509549E-1
1.332672667E0,-1.152788877E0,4.727351964E-1,2.151683420E-1
1.342732667E0,-1.223250270E0,3.598238230E-1,2.089791596E-1
1.352791667E0,-1.309196353E0,2.920325398E-1,2.094654441E-1
1.362851667E0,-1.400732398E0,3.230674267E-1,2.346589565E-1
1.372911667E0,-1.350297570E0,2.404664159E-1,2.605060339E-1
1.382971667E0,-5.730963349E-1,-1.574458033E-1,2.527591586E-1
1.393031667E0,-5.181590468E-2,-2.639063299E-1,2.927880883E-1
1.403091667E0,-7.650040090E-3,-6.754320115E-2,3.346764147E-1
1.413151667E0,-2.349401563E-1,1.629573703E-1,2.660849392E-1
1.423211667E0,-4.152569473E-1,2.805891931E-1,7.934649289E-2
1.433271667E0,-4.486431181E-1,3.221556246E-1,-1.157597005E-1
1.443331667E0,-4.526306689E-1,3.672735393E-1,-1.821701527E-1
1.453390667E0,-4.626594484E-1,4.203474522E-1,-1.344166398E-1
1.463450667E0,-4.728529751E-1,4.039285183E-1,-7.773658633E-2
1.473510667E0,-5.034242868E-1,3.613000214E-1,-4.044796526E-2
1.483570667E0,-5.306055546E-1,3.290094733E-1,-1.045517996E-2
1.493630667E0,-5.586043596E-1,3.198464811E-1,-2.047337219E-2
1.503690667E0,-5.820454955E-1,2.583724558E-1,-5.979228392E-2
1.513750667E0,-5.958884358E-1,1.669152230E-1,-9.237518907E-2
1.523810667E0,-5.854427218E-1,8.354736865E-2,-1.068116575E-1
1.533870667E0,-5.515001416E-1,3.806729987E-2,-1.048750281E-1
1.543930667E0,-4.767073691E-1,1.411669515E-2,-1.294568181E-1
1.553989667E0,-4.032191336E-1,3.405439109E-2,-2.493233830E-1
1.564049667E0,-3.542515934E-1,4.558987170E-2,-3.898267150E-1
1.574109667E0,-3.270934820E-1,-4.572699312E-3,-4.677595198E-1
1.584169667E0,-2.979923189E-1,-8.963406831E-2,-5.141147375E-1
1.594229667E0,-2.764403522E-1,-1.872764528E-1,-5.359673500E-1
1.604289667E0,-2.654779851E-1,-1.979948729E-1,-5.772050619E-1
1.614349667E0,-2.242863178E-1,-6.385672837E-2,-6.996611953E-1
1.624409667E0,-1.312748939E-1,1.213956848E-1,-8.886495233E-1
1.634469667E0,-5.947121978E-2,2.562385201E-1,-1.037273049E0
1.644529667E0,1.243519410E-2,3.612973094E-1,-1.117836952E0
1.654588667E0,3.485390842E-1,6.299464107E-1,-1.061465621E0
1.664648667E0,1.015351415E-1,4.889746308E-1,-9.261547327E-1
1.674708667E0,-1.295670122E-1,1.226407737E-1,-8.352684975E-1
1.684768667E0,-1.699905992E-1,-1.637118906E-1,-8.202341795E-1
1.694828667E0,-2.076614648E-1,-2.666963935E-1,-8.409770131E-1
1.704888667E0,-2.603726089E-1,-2.868479788E-1,-9.578424096E-1
1.714948667E0,-2.885809541E-1,-3.282103539E-1,-1.133380532E0
1.725008667E0,-2.542783916E-1,-4.004557729E-1,-1.314771056E0
1.735069042E0,-2.387559712E-1,-4.738386869E-1,-1.441847205E0
1.745129042E0,-2.119176984E-1,-4.303410053E-1,-1.453711390E0
1.755188042E0,-1.672475412E-2,-2.864155769E-1,-1.521752238E0
1.765248042E0,1.314354092E-1,-2.734297514E-1,-1.587549567E0
1.775308042E0,1.902169734E-1,-3.350383043E-1,-1.540697098E0
1.785368042E0,2.027937472E-1,-4.204967320E-1,-1.432169318E0
1.795428042E0,1.907440126E-1,-5.241119862E-1,-1.384964466E0
1.805488042E0,1.550070494E-1,-4.720408320E-1,-1.358931303E0
1.815548042E0,1.389451623E-1,-2.091897577E-1,-1.276310086E0
1.825608042E0,1.122325882E-1,1.595153064E-1,-1.454985738E0
1.835668042E0,4.942602664E-2,5.660545230E-1,-1.627462149E0
1.845728042E0,-4.360503517E-3,9.052578807E-1,-1.732371211E0
1.855787042E0,-2.483204752E-2,1.160429835E0,-1.925538659E0
1.865847042E0,-8.470177650E-2,1.446423531E0,-2.234885454E0
1.875907042E0,-3.728700578E-1,1.533486128E0,-2.151672602E0
1.885967042E0,-2.813137770E-1,1.618481398E0,-1.700388670E0
1.896027042E0,1.667055190E-1,1.667152882E0,-1.686507344E0
1.906087042E0,5.118871927E-1,1.818080068E0,-1.801852226E0
1.916147042E0,5.905126929E-1,1.893572211E0,-1.794334173E0
1.926207042E0,5.505495667E-1,1.870780587E0,-1.710231304E0
1.936267042E0,4.940646887E-1,1.717230797E0,-1.663924336E0
1.946327042E0,4.390925169E-1,1.481280565E0,-1.639262438E0
1.956386042E0,3.767267764E-1,1.316840649E0,-1.676983356E0
1.966446042E0,3.524075747E-1,1.267951369E0,-1.749172091E0
1.976506042E0,3.282736540E-1,1.302783132E0,-1.850786448E0
1.986566042E0,2.850660086E-1,1.399354935E0,-1.901941538E0
1.996626042E0,2.684122026E-1,1.556651592E0,-1.820624828E0
2.006686042E0,2.573110759E-1,1.447660089E0,-1.723175168E0
2.016746042E0,-1.180129498E-1,-3.502054811E-1,-1.492296219E0
2.026806042E0,4.094636440E-1,-6.190068722E-1,-1.285394669E0
2.036866042E0,7.498233318E-1,-6.175521612E-1,-1.229797602E0
2.046926042E0,9.615467787E-1,-6.286463737E-1,-1.225322962E0
2.056985042E0,1.000751615E0,-8.898245692E-1,-1.092646122E0
2.067045042E0,9.368245602E-1,-1.349888802E0,-8.924955130E-1
2.077105042E0,8.069741726E-1,-1.827500343E0,-7.116849422E-1
2.087165042E0,7.218949795E-1,-2.118552208E0,-5.273300409E-1
2.097225042E0,7.554753423E-1,-2.269340754E0,-3.703123033E-1
2.107285042E0,9.326154590E-1,-2.220504522E0,-3.221751451E-1
2.117345042E0,1.078470469E0,-2.177990198E0,-2.514207959E-1
2.127405042E0,1.082738400E0,-2.262249470E0,-2.065968513E-1
2.137465042E0,1.013269901E0,-2.151398420E0,-2.737455666E-1
2.147525042E0,8.393708467E-1,-2.131080866E0,-3.287065327E-1
2.157584042E0,7.249557376E-1,-1.874079466E0,-2.717373371E-1
2.167644042E0,6.915162802E-1,-1.584519863E0,-2.063244879E-1
2.177704042E0,6.762784123E-1,-1.429928899E0,-1.065106690E-1
2.187764042E0,7.452484369E-1,-1.333876967E0,5.102382973E-2
2.197824042E0,7.039684653E-1,-1.813471079E0,1.818072349E-1
2.207884042E0,6.414318681E-1,-1.157684445E0,2.904990911E-1
2.217944042E0,6.072075367E-1,-4.036893845E-1,3.058904707E-1
2.228004042E0,4.820398092E-1,-1.268487275E-1,2.267546356E-1
2.238064042E0,2.812211215E-1,2.082958370E-1,2.816662658E-3
2.248124042E0,-1.875523478E-2,7.935249805E-2,1.750448942E-1
2.258184042E0,-4.025620818E-1,-4.214629903E-2,4.140193164E-1
2.268243042E0,-4.494888484E-1,2.539263666E-1,6.970787048E-1
2.278303042E0,-5.194371939E-1,6.603255868E-2,5.964069963E-1
2.288363042E0,-1.699550748E-1,3.588162065E-1,3.748251200E-1
2.298423042E0,4.206979573E-1,4.350197315E-1,2.908744812E-1
2.308483042E0,6.730481386E-1,1.480707824E-1,2.726025283E-1
2.318543042E0,6.408716440E-1,-9.907074273E-3,2.960360050E-1
2.328603042E0,7.327576280E-1,1.311211586E-1,5.468744040E-1
2.338663042E0,7.006557584E-1,1.910440922E-1,7.635857463E-1
2.348723042E0,7.880039811E-1,2.474668622E-1,8.990548849E-1
2.358783042E0,3.690112531E-1,-2.376604676E-1,8.288633823E-1
2.368842042E0,1.901565492E-1,-2.559422851E-1,6.938334107E-1
2.378902042E0,2.291228771E-1,-2.309331149E-1,7.722651958E-1
2.388962042E0,1.648544073E-1,-5.269266963E-1,8.025271893E-1
2.399022042E0,2.073712647E-2,-7.314879298E-1,6.418424845E-1
2.409082042E0,-1.179022491E-1,-1.084760189E0,5.174731016E-1
2.419142042E0,-6.272757649E-1,-1.462812304E0,3.805360496E-1
2.429202042E0,-6.271337867E-1,-1.136887789E0,7.156019807E-1
2.439262042E0,-1.888738871E-1,-6.357291341E-1,5.347437263E-1
2.449322042E0,9.072286636E-2,-3.835754693E-1,3.867057860E-1
2.459382042E0,9.870283306E-2,-5.573231578E-1,2.433534265E-1
2.469441042E0,1.864661276E-2,-8.791643381E-1,2.274932414E-1
2.479501042E0,-9.982343018E-2,-1.150468826E0,3.466607332E-1
2.489561042E0,-1.499611586E-1,-1.390383363E0,5.134065747E-1
2.499621042E0,-2.777608633E-1,-1.421319485E0,6.084773540E-1
2.509681042E0,-3.481221199E-1,-1.097537994E0,6.297544241E-1
2.519741042E0,-2.556024492E-1,4.739034176E-1,9.348152876E-1
2.529801042E0,3.504467309E-1,4.668924809E0,9.777089357E-1
2.539861042E0,-1.069377828E-2,3.708324432E0,-2.512734756E-2
2.549921042E0,-8.535767794E-1,1.818565607E0,-6.036485434E-1
2.559981042E0,-1.469781041E0,1.314452291E0,-8.751959205E-1
2.570041042E0,-1.187530875E0,7.561104298E-1,-9.655402303E-1
2.580100042E0,-7.645218372E-1,5.699255466E-1,-9.938371181E-1
2.590160042E0,-3.837217689E-1,3.968669176E-1,-9.614753723E-1
2.600220042E0,-2.331383824E-1,3.355697393E-1,-1.062924743E0
2.610280042E0,-1.465981603E-1,2.334561795E-1,-1.155879736E0
2.620340042E0,-9.387873113E-2,2.001550198E-1,-1.209565282E0
2.630400042E0,-8.000099659E-2,1.730810553E-1,-1.232552528E0
2.640460042E0,-1.412541419E-1,1.754711717E-1,-1.326090455E0
2.650520042E0,-1.939756721E-1,1.672265679E-1,-1.502768278E0
2.660580042E0,-2.638082504E-1,2.471008152E-1,-1.613690495E0
2.670640042E0,-3.451536894E-1,3.620380461E-1,-1.673609257E0
2.680699042E0,-3.881138265E-1,4.509832859E-1,-1.771695018E0
2.690759042E0,-3.823334277E-1,4.930095673E-1,-1.894016385E0
2.700819042E0,-2.677438855E-1,3.444197774E-1,-1.996868491E0
2.710879042E0,-7.254642993E-2,-7.613098249E-3,-1.916102767E0
2.720939042E0,4.249791056E-2,-2.403155714E-1,-1.829702497E0
2.730999042E0,7.872382551E-2,-3.428480923E-1,-1.802448511E0
2.741059333E0,1.466206461E-1,-3.519484401E-1,-1.819804311E0
2.751119333E0,2.383193970E-1,-3.098172247E-1,-1.788711667E0
2.761179333E0,2.812558711E-1,-1.458125859E-1,-1.688454151E0
2.771239333E0,2.445732206E-1,-8.697989583E-2,-1.580995560E0
2.781298333E0,6.351790577E-2,-1.649378613E-2,-1.318983793E0
2.791358333E0,-4.253449291E-2,-1.193844825E-1,-8.704786897E-1
2.801418333E0,-4.384490848E-2,-2.753142416E-1,-3.152751327E-1
2.811478333E0,2.393467352E-2,-3.719499707E-1,1.494976133E-1
2.821538333E0,1.200594902E-1,-4.171684384E-1,2.284513265E-1
2.831598333E0,1.958653033E-1,-4.103494287E-1,2.564947009E-1
2.841658333E0,2.178255916E-1,-3.206982911E-1,2.535876334E-1
2.851718333E0,1.721169651E-1,-2.050819546E-1,2.452412695E-1
2.861778333E0,9.256526828E-2,-1.519894302E-1,2.408147156E-1
2.871838333E0,-2.565723844E-5,-7.317132503E-2,2.040183544E-1
2.881897333E0,-1.363190413E-1,-6.625361741E-2,1.452887952E-1
2.891957333E0,-2.525918484E-1,-1.931708157E-1,6.551939249E-2
2.902017333E0,-3.152947724E-1,-3.028246164E-1,2.396687493E-2
2.912077333E0,-4.062678218E-1,-3.746676445E-1,-4.219989479E-2
2.922137333E0,-5.369393826E-1,-4.537764490E-1,-1.091356054E-1
2.932197333E0,-6.322856545E-1,-4.772127867E-1,-1.649464071E-1
2.942257333E0,-6.896913052E-1,-4.739239216E-1,-2.120905221E-1
2.952317333E0,-4.620655775E-1,-8.426644206E-1,-1.702109873E-1
2.962377333E0,1.747967750E-1,-2.138491631E0,-1.416976601E-1
2.972437333E0,8.219973743E-2,-2.123620987E0,-3.399859667E-1
2.982497333E0,-3.627161682E-1,-9.751940370E-1,-3.740993440E-1
2.992556333E0,-4.020561278E-1,-2.457922995E-1,-1.658500135E-1
3.002616333E0,1.081547216E-1,-6.317992210E-1,1.828381270E-1
3.012676333E0,2.591013610E-1,-3.115924299E-1,1.525254995E-1
3.022736333E0,1.687847376E-1,-9.111235291E-2,7.208574563E-2
3.032796333E0,1.149854362E-1,-1.955077499E-1,7.254807651E-2
3.042856333E0,1.579555124E-1,-3.442083299E-1,1.098201871E-1
3.052916333E0,2.629940510E-1,-1.864706576E-1,1.898867935E-1
3.062976333E0,2.830680609E-1,-3.183474019E-2,2.448216230E-1
3.073036333E0,1.857588440E-1,-8.376691490E-2,1.803928316E-1
3.083096333E0,9.507429600E-2,-1.579534560E-1,4.067150131E-2
3.093156333E0,1.413472593E-1,-2.571791410E-1,-7.024782896E-2
3.103215333E0,2.253488153E-1,-2.118947804E-1,-1.302154660E-1
3.113275333E0,2.377540916E-1,7.787099481E-2,-1.095754355E-1
3.123335333E0,1.699290574E-1,3.359574676E-1,-6.992489100E-2
3.133395333E0,8.291880041E-2,4.283787310E-1,-3.292373195E-2
3.143455333E0,2.757025138E-2,3.776861429E-1,-2.133763768E-2
3.153515333E0,2.643201500E-2,3.521834612E-1,-2.406338230E-2
3.163575333E0,5.729862303E-2,3.349747658E-1,-4.061609507E-2
3.173635333E0,7.811282575E-2,3.391324878E-1,-8.045485616E-2
3.183695333E0,6.993216276E-2,3.729451895E-1,-7.979848981E-2
3.193755333E0,1.823328622E-2,5.074124932E-1,-7.097836584E-2
3.203814333E0,-6.392175704E-2,5.617023706E-1,-7.293604314E-2
3.213874333E0,-1.586527973E-1,5.630627275E-1,-9.437449276E-2
3.223934333E0,-2.203388214E-1,5.566320419E-1,-1.279247999E-1
3.233994333E0,-2.705505788E-1,5.638492107E-1,-1.578653902E-1
3.244054333E0,-3.076487482E-1,5.818776488E-1,-1.793560237E-1
3.254114333E0,-3.268362880E-1,5.897832513E-1,-1.929607838E-1
3.264174333E0,-3.349473178E-1,5.949630141E-1,-2.009386122E-1
3.274234333E0,-3.373169899E-1,5.939832926E-1,-2.039314806E-1
3.284294333E0,-3.344485462E-1,6.031457782E-1,-2.005977035E-1
3.294354333E0,-3.331766129E-1,5.974681377E-1,-2.114101499E-1
3.304414333E0,-3.096988797E-1,6.606750488E-1,-1.872705072E-1
3.314473333E0,-3.063369095E-1,7.020757198E-1,-1.740889251E-1
3.324533333E0,-2.901248932E-1,7.471828461E-1,-1.747364253E-1
3.334593333E0,-2.634647787E-1,7.923532724E-1,-1.783876270E-1
