"Time (s)","X (m/s^2)","Y (m/s^2)","Z (m/s^2)"
3.954583313E-3,-4.925956421E0,2.876418457E0,6.590944061E0
1.392358332E-2,-4.346960449E0,3.061433716E0,6.433022461E0
2.389258333E-2,-3.847449188E0,2.896027679E0,6.837631073E0
3.386158333E-2,-3.541335754E0,2.542762299E0,7.691605225E0
4.383058334E-2,-3.326981506E0,2.363135834E0,9.018895111E0
5.379958334E-2,-3.160527649E0,2.540516968E0,9.923014984E0
6.376858335E-2,-2.840343475E0,2.694846039E0,9.839488678E0
7.373758336E-2,-2.404749298E0,2.608775024E0,8.432414703E0
8.370658336E-2,-2.149230652E0,2.542163544E0,8.071515198E0
9.367558331E-2,-2.244282990E0,2.110910339E0,7.213798828E0
1.036445833E-1,-2.658172302E0,2.199376373E0,6.822362823E0
1.136135833E-1,-3.038681030E0,2.250569916E0,6.755751343E0
1.235825833E-1,-3.265758820E0,2.210603027E0,6.971901855E0
1.335515833E-1,-3.080144806E0,2.038311310E0,7.322772217E0
1.435205833E-1,-2.699336700E0,1.811682587E0,7.455246735E0
1.534895833E-1,-2.187550964E0,1.771715698E0,8.040679321E0
1.634585834E-1,-1.620530090E0,1.825603638E0,9.341623993E0
1.734275834E-1,-1.063089294E0,1.477427673E0,9.930349731E0
1.833965834E-1,-7.755372620E-1,1.058898010E0,1.022583527E1
1.933655833E-1,-6.890171814E-1,9.180409241E-1,1.041534119E1
2.033345833E-1,-7.376660156E-1,1.022673340E0,1.052431458E1
2.133035833E-1,-7.643106079E-1,1.434766388E0,1.064526306E1
2.232725833E-1,-6.849755859E-1,1.961371307E0,1.084629501E1
2.332415833E-1,-4.213737488E-1,2.367925873E0,1.099164276E1
2.432105833E-1,-1.469943237E-1,2.590513000E0,1.114612152E1
2.531795833E-1,2.011816406E-1,2.244881744E0,1.121901993E1
2.631485834E-1,4.574487305E-1,1.235830078E0,1.088326813E1
2.731185833E-1,7.141648865E-1,5.328918457E-2,1.063837738E1
2.830875833E-1,9.517208862E-1,-5.292993164E-1,1.068702621E1
2.930565833E-1,1.066681824E0,-6.382727051E-1,1.090153015E1
3.030255833E-1,9.774673462E-1,-1.074765015E-1,1.121872055E1
3.129945833E-1,1.005608826E0,9.560618591E-1,1.125928619E1
3.229635833E-1,1.003812561E0,2.113305359E0,1.094658646E1
3.329325833E-1,1.082698517E0,2.855761414E0,1.043150757E1
3.429015834E-1,2.604733429E0,3.816613312E0,1.219543945E1
3.528705834E-1,5.926775208E0,5.835315399E0,1.069930069E1
3.628395834E-1,2.105820923E0,3.637735291E0,1.150687134E1
3.728085833E-1,1.156944122E0,2.565514984E0,1.095062805E1
3.827775833E-1,1.305884399E0,1.824106750E0,1.120060822E1
3.927465833E-1,2.365081787E-2,3.454815674E-1,1.037627243E1
4.027155833E-1,-5.441184998E-1,-2.772235107E-1,8.817114716E0
4.126845833E-1,-1.404828644E0,-1.848655701E-1,7.802524567E0
4.226535833E-1,-2.432292023E0,1.886077881E-1,7.440128174E0
4.326225834E-1,-2.395917664E0,7.217990112E-1,7.952362976E0
4.425915834E-1,-2.846929779E0,4.810995483E-1,9.368567963E0
4.525605834E-1,-2.693498840E0,1.088237000E-1,1.085258194E1
4.625295833E-1,-1.535207520E0,-6.436614990E-2,1.212014603E1
4.724985833E-1,-2.842588806E-1,4.959187317E-1,1.284209473E1
4.824675833E-1,4.629872131E-1,9.714797974E-1,1.220936050E1
4.924365833E-1,5.956114197E-1,5.405259705E-1,1.068388275E1
5.024055833E-1,-4.267625427E-1,1.152603149E-2,1.005339386E1
5.123745833E-1,-9.575587463E-1,-1.736389160E-2,1.002330643E1
5.223435833E-1,-1.018332367E0,5.896238708E-1,1.124641296E1
5.323125834E-1,-7.273374939E-1,1.028062134E0,1.292487259E1
5.422815834E-1,-2.233954468E0,6.348298645E-1,1.336795120E1
5.522505834E-1,-2.353705444E0,3.727249146E-1,1.309851151E1
5.622195833E-1,-6.188131714E-1,5.794450378E-1,1.357452164E1
5.721885833E-1,2.095642090E-2,3.875440979E-1,1.347916992E1
5.821575833E-1,1.336720276E-1,-9.714797974E-2,1.222747284E1
5.921265833E-1,1.457968140E-1,-1.018931122E0,9.621691589E0
6.020955833E-1,1.219963074E-1,-2.050436096E0,6.428531799E0
6.120645833E-1,-1.732946320E0,-2.308649139E0,5.434299316E0
6.220335833E-1,-3.241509247E0,-1.637594604E-1,4.135001221E0
6.320025834E-1,-3.545826416E0,3.097508698E0,4.263883209E0
6.419715834E-1,-3.102298737E0,4.678820343E0,6.221811676E0
6.519405833E-1,-1.664239197E0,5.279371490E0,8.331524506E0
6.619095833E-1,-1.053808594E0,5.256618805E0,9.876162415E0
6.718785833E-1,-1.295256500E0,4.655468903E0,1.057984909E1
6.818475833E-1,-1.258732452E0,3.904779968E0,1.008512787E1
6.918165833E-1,-1.498084717E0,3.121608582E0,9.125772858E0
7.017855833E-1,-1.870061188E0,2.323318634E0,8.397088165E0
7.117555834E-1,-1.682052155E0,1.504820709E0,7.182364197E0
7.217245834E-1,-1.502575378E0,1.130449219E0,7.464976501E0
7.316935834E-1,-2.389780426E0,7.364685059E-1,8.080945587E0
7.416625833E-1,-1.916764069E0,8.773255920E-1,7.649692383E0
7.516315833E-1,-7.023394775E-1,1.981429596E0,8.388106842E0
7.616005833E-1,-9.220825195E-2,3.336860962E0,8.224347382E0
7.715695833E-1,-3.522175598E-1,3.290457458E0,7.888146515E0
7.815385833E-1,7.783813477E-3,3.033142548E0,8.957822113E0
7.915075833E-1,-1.646575928E-1,2.212399292E0,9.710756378E0
8.014765834E-1,-6.674620056E-1,1.059347076E0,9.613458710E0
8.114455834E-1,-6.969506836E-1,1.096769257E0,9.931098175E0
8.214145834E-1,-1.419647827E0,1.027164001E0,1.052251831E1
8.313835833E-1,-1.822310486E0,5.218148804E-1,1.027208908E1
8.413525833E-1,-1.471589813E0,7.476951599E-1,9.398805084E0
8.513215833E-1,-1.143322449E0,1.969753876E0,8.137527924E0
8.612905833E-1,-1.982028351E0,1.998793488E0,7.578141174E0
8.712595833E-1,-1.583706665E0,2.017504578E0,8.936566315E0
8.812285833E-1,-9.678872681E-1,2.504741364E0,1.099882782E1
8.911975833E-1,-1.003513184E0,2.434986420E0,1.229603027E1
9.011665834E-1,-1.636696472E0,2.113155670E0,1.175595337E1
9.111355834E-1,-1.453776855E0,2.671793976E0,9.660910034E0
9.211045834E-1,-1.183738403E0,4.119134216E0,6.320905609E0
9.310735833E-1,-2.233206024E0,4.313879242E0,5.519322510E0
9.410425833E-1,-2.075284424E0,3.431164856E0,7.176676025E0
9.510115833E-1,-9.599537659E-1,3.092868347E0,9.524842987E0
9.609805833E-1,2.092648315E-1,3.153791656E0,1.108280319E1
9.709495833E-1,9.725276184E-1,3.391796722E0,1.109268265E1
9.809185833E-1,1.032852173E0,3.592529297E0,9.966275024E0
9.908875833E-1,8.604107666E-1,3.410358124E0,8.686586151E0
1.000856583E0,3.402424622E-1,2.578537903E0,8.747060394E0
1.010825667E0,8.572673035E-1,2.617307281E0,8.396639099E0
1.020794667E0,1.367406464E0,2.883154449E0,8.876990204E0
1.030763667E0,1.745669861E0,3.232677612E0,9.348210297E0
1.040732667E0,1.204994202E0,2.920277252E0,9.737400970E0
1.050701667E0,1.701362000E0,3.981270905E0,7.716902618E0
1.060670667E0,1.592987366E0,4.520449677E0,9.700577545E0
1.070639667E0,1.296154633E0,2.787503357E0,1.671499100E1
1.080608667E0,1.981579285E0,1.120420074E0,1.719055206E1
1.090577667E0,2.404300232E0,2.185006256E0,1.348994751E1
1.100546667E0,3.415297852E0,4.296665039E0,7.546856232E0
1.110515667E0,3.577410736E0,5.743855591E0,4.738695831E0
1.120485667E0,3.213816833E0,5.972879333E0,5.751340027E0
1.130454667E0,2.223625946E0,5.031486969E0,7.199728088E0
1.140423667E0,-1.261875916E-1,2.855162659E0,8.781488800E0
1.150392667E0,-4.845423889E-1,2.662812653E0,8.171357574E0
1.160361667E0,-2.371069336E-1,2.839295654E0,5.947282562E0
1.170330667E0,-1.317260742E-1,3.277733917E0,4.696932678E0
1.180299667E0,1.511107635E0,5.630241852E0,9.353299713E0
1.190268667E0,1.903441772E0,4.730163574E0,9.508826294E0
1.200237667E0,6.270460510E-1,2.974464569E0,8.139024811E0
1.210206667E0,8.355624390E-1,3.204236755E0,7.849377136E0
1.220175667E0,1.344055023E0,3.201991425E0,7.029831390E0
1.230144667E0,1.103654938E0,3.674109650E0,8.580606537E0
1.240113667E0,6.706054688E-1,3.560645599E0,1.026026367E1
1.250082667E0,3.504212952E-1,2.069446564E0,1.029858398E1
1.260051667E0,-3.001258850E-1,1.024020538E0,9.821376343E0
1.270020667E0,-6.081852722E-1,7.915539551E-1,8.554111633E0
1.279989667E0,-5.409750366E-1,7.542814636E-1,6.411018219E0
1.289958667E0,-5.957611084E-2,1.109792175E0,6.638395386E0
1.299927667E0,1.523082733E0,2.601889343E0,7.502099304E0
1.309896667E0,3.566483459E0,4.648283844E0,8.046217804E0
1.319865667E0,4.922214203E0,5.749693451E0,8.034242706E0
1.329834667E0,4.828059998E0,5.125042419E0,8.332422638E0
1.339803667E0,4.001478882E0,3.608995056E0,7.562274170E0
1.349772667E0,3.236270142E0,2.374661865E0,5.811365204E0
1.359741667E0,3.115321655E0,2.048340454E0,5.030588837E0
1.369710667E0,3.451821899E0,2.472707977E0,4.377047882E0
1.379679667E0,3.593277740E0,2.600093079E0,3.209475861E0
1.389648667E0,3.603905640E0,2.649041290E0,3.654799805E0
1.399617667E0,3.385659485E0,2.833008728E0,4.414020996E0
1.409586667E0,2.971620483E0,2.610720978E0,4.648732910E0
1.419555667E0,2.936443634E0,1.630409546E0,3.900588684E0
1.429524667E0,3.019221497E0,1.370250549E0,4.013304291E0
1.439493667E0,4.332740021E0,1.665586395E0,5.546565857E0
1.449462667E0,5.016518097E0,2.117646332E0,6.582112427E0
1.459431667E0,4.053720245E0,1.966011658E0,5.304219818E0
1.469400667E0,2.835104370E0,1.068029022E0,3.292702789E0
1.479369667E0,1.695823517E0,3.162922668E-1,2.397863617E0
1.489338667E0,1.023870850E0,-3.109034729E-1,2.633922729E0
1.499307667E0,9.821076965E-1,-9.358538818E-1,3.402723999E0
1.509276667E0,1.279239807E0,-1.658700714E0,4.707410889E0
1.519245667E0,9.370513916E-1,-3.332070923E0,6.620732117E0
1.529214667E0,2.107617188E0,-3.302731934E0,7.481442261E0
1.539183667E0,4.073479156E0,-2.042203217E0,7.613916779E0
1.549153667E0,4.900958405E0,-1.327589264E0,6.905140686E0
1.559122667E0,6.606811066E0,-1.177002411E0,5.560636597E0
1.569091667E0,6.947352905E0,-1.248553619E0,4.858596497E0
1.579060667E0,5.308411102E0,-1.465751953E0,5.020410004E0
1.589029667E0,4.245172119E0,-2.926713867E0,6.013444977E0
1.598998667E0,3.874991913E0,-4.615502014E0,6.916067963E0
1.608967667E0,4.288581848E0,-5.577252045E0,7.313641205E0
1.618936667E0,4.868326263E0,-5.171894989E0,7.304061127E0
1.628905667E0,5.585484924E0,-4.531227264E0,5.776038666E0
1.638874667E0,7.778574371E0,-4.147724762E0,4.173620911E0
1.648843667E0,1.030741562E1,-4.196223907E0,3.585344238E0
1.658812667E0,1.181253571E1,-4.857548676E0,4.946164398E0
1.668781667E0,1.240186020E1,-6.207441559E0,7.426207123E0
1.678750667E0,1.019080811E1,-6.457421722E0,9.832752686E0
1.688719667E0,9.220974884E0,-6.862928467E0,1.091829529E1
1.698688667E0,1.073178314E1,-7.441475372E0,1.074121353E1
1.708657667E0,1.293011169E1,-6.168372803E0,1.067190765E1
1.718626667E0,1.518143005E1,-4.558171234E0,9.455986176E0
1.728595667E0,1.589140366E1,-4.033512268E0,7.557783508E0
1.738564667E0,1.495809448E1,-4.725074158E0,6.168372803E0
1.748533667E0,1.378184052E1,-5.904621277E0,4.839735718E0
1.758502667E0,1.283071838E1,-6.999145203E0,3.937262421E0
1.768471667E0,1.240739868E1,-8.555458832E0,3.788621521E0
1.778440667E0,1.336810089E1,-9.126670990E0,4.067940674E0
1.788409667E0,1.610845230E1,-7.819888458E0,3.465593262E0
1.798378667E0,1.874267441E1,-5.949378204E0,2.265838165E0
1.808347667E0,1.981309845E1,-4.302802277E0,1.415755920E0
1.818316667E0,1.919054306E1,-4.489314423E0,5.523513794E-1
1.828285667E0,1.725072693E1,-5.857319641E0,3.483256531E-1
1.838254667E0,1.600127518E1,-6.965914307E0,3.623963928E-1
1.848223667E0,1.525537628E1,-7.804769897E0,4.999603271E-1
1.858192667E0,1.485391113E1,-7.715405731E0,9.021739197E-1
1.868161667E0,1.542452454E1,-7.041806488E0,1.239422607E0
1.878130667E0,1.603450607E1,-6.065985718E0,1.264869690E0
1.888099667E0,1.628478561E1,-4.353397064E0,-1.949695587E0
1.898068667E0,1.498084717E1,-2.698288879E0,-8.015531616E0
1.908037667E0,1.185804108E1,-3.430117035E0,-6.929240570E0
1.918006667E0,1.010129425E1,-4.677473145E0,-4.584067383E0
1.927976667E0,9.441765747E0,-6.000122681E0,-1.736389160E-2
1.937945667E0,9.982740784E0,-7.148235168E0,4.924758911E-1
1.947914667E0,1.130808472E1,-7.928412781E0,3.955225067E0
1.957883667E0,8.570577393E0,-5.979315948E0,1.829794922E0
1.967852667E0,7.754923553E0,-5.046455841E0,1.761087799E0
1.977821667E0,8.383765869E0,-4.889282684E0,-1.682501221E-1
1.987790667E0,8.453820190E0,-3.892954559E0,3.293151855E-2
1.997759667E0,9.158554688E0,-3.529809723E0,6.631210327E0
2.007729333E0,5.419330444E0,-2.690505066E0,-8.675958252E-1
2.017698333E0,4.906646576E0,-2.940634918E0,-2.822979584E0
2.027667333E0,3.380270691E0,-3.864364014E0,3.778592377E0
2.037636333E0,1.907034302E0,-3.609743500E0,-5.754034424E-1
2.047605333E0,1.557810516E0,-3.714675293E0,-1.151255951E0
2.057574333E0,7.641609192E-1,-4.936434631E0,2.310894470E0
2.067543333E0,4.908293152E-1,-4.604275360E0,7.625143433E-1
2.077512333E0,1.676064606E0,-3.396736450E0,1.832189941E-1
2.087481333E0,2.773881683E0,-2.471061401E0,2.173480225E-1
2.097450333E0,4.405937805E0,-1.864223328E0,3.668870544E-1
2.107419333E0,4.938979340E0,-1.893562317E0,7.399113464E-1
2.117388333E0,4.240681458E0,-2.804717560E0,5.529501343E-1
2.127357333E0,5.108127594E0,-2.837200012E0,8.430468750E-1
2.137326333E0,6.049819336E0,-2.350561981E0,1.107546844E0
2.147295333E0,6.428531799E0,-2.356848907E0,2.746338959E0
2.157264333E0,6.230343933E0,-4.997208252E0,3.009791107E0
2.167233333E0,4.958887939E0,-6.265371094E0,1.886526947E0
2.177202333E0,5.185965729E0,-6.469247131E0,9.719288635E-1
2.187171333E0,6.393654327E0,-6.942113800E0,-5.301974487E-1
2.197140333E0,7.390132141E0,-7.566764832E0,-1.609153748E0
2.207109333E0,4.844974823E0,-7.627239075E0,-1.718875580E0
2.217078333E0,4.297862549E0,-8.343948669E0,-1.348545685E0
2.227047333E0,4.102668457E0,-8.878786469E0,-6.321354675E-1
2.237016333E0,3.557053070E0,-7.991581421E0,-1.929487610E-1
2.246985333E0,5.635031891E0,-8.300988007E0,6.682104492E-1
2.256954333E0,5.942342834E0,-8.085885315E0,3.422033844E0
2.266923333E0,6.736142120E0,-8.388406219E0,5.527854767E0
2.276892333E0,7.492070160E0,-9.226363678E0,5.365292816E0
2.286861333E0,7.705675964E0,-9.532327423E0,4.420008545E0
2.296830333E0,6.810387726E0,-1.023840912E1,3.053051147E0
2.306799333E0,5.214556274E0,-1.027957352E1,1.159339142E0
2.316768333E0,6.780300293E0,-1.003408401E1,2.894979858E-1
2.326737333E0,6.811285858E0,-9.080716553E0,-9.490264893E-1
2.336707333E0,6.828649750E0,-8.501570892E0,-6.105802917E-1
2.346676333E0,7.799381104E0,-7.855514374E0,2.333647156E-1
2.356645333E0,8.382568359E0,-7.229366455E0,2.209555206E0
2.366614333E0,8.748706970E0,-7.386689301E0,3.108885040E0
2.376583333E0,8.044720917E0,-8.038733368E0,1.967508545E0
2.386552333E0,7.674690399E0,-8.333470459E0,2.331252136E0
2.396521333E0,5.464536438E0,-8.094716949E0,1.178199921E0
2.406490333E0,4.128115540E0,-7.681276703E0,6.584806824E-1
2.416459333E0,3.890559540E0,-6.753356323E0,7.414082336E-1
2.426428333E0,4.592300262E0,-6.570436707E0,1.175804901E0
2.436397333E0,5.126838684E0,-7.242089996E0,2.372566223E0
2.446366333E0,5.123844910E0,-8.121361542E0,3.634142761E0
2.456335333E0,3.824097748E0,-7.206015015E0,4.528832245E0
2.466304333E0,3.329077148E0,-2.975662079E0,6.744973755E-1
2.476273333E0,7.179819489E0,-4.036805420E0,3.015628967E0
2.486242333E0,6.111790466E0,-7.717950439E0,2.408940582E0
2.496211333E0,4.559069366E0,-8.925639038E0,3.088677063E0
2.506180333E0,5.333858185E0,-1.090332642E1,2.094444580E0
2.516149333E0,4.714296570E0,-1.048539551E1,6.023474121E-1
2.526118333E0,5.042114868E0,-1.004590942E1,-2.459385681E-1
2.536087333E0,5.010680237E0,-1.024679169E1,-4.489164734E-1
2.546056333E0,5.516478424E0,-1.006297394E1,2.462379456E-1
2.556025333E0,6.529721375E0,-9.954299927E0,1.264720001E0
2.565994333E0,6.752458191E0,-9.178163910E0,1.117276611E0
2.575963333E0,5.942193146E0,-5.347479858E0,1.294508057E0
2.585932333E0,6.965016174E0,1.324894867E0,-1.036594391E0
2.595901333E0,7.766898651E0,-2.093247070E0,-1.799108734E0
2.605870333E0,6.312672729E0,-3.283122711E0,-2.105371857E0
2.615839333E0,5.236859894E0,-5.321583710E0,1.435215454E0
2.625808333E0,3.358865204E0,-1.055125854E1,3.811523895E0
2.635777333E0,6.108796692E-1,-1.488160355E1,4.518653412E0
2.645746333E0,6.706054688E-1,-1.489896744E1,3.023113403E0
2.655715333E0,1.438059540E0,-1.369951172E1,-5.285508728E-1
2.665684333E0,3.022664337E0,-1.427596298E1,6.033952332E-1
2.675653333E0,3.564537506E0,-1.413540527E1,-7.848179626E-1
2.685622333E0,3.312910767E0,-1.330598007E1,-9.348060608E-1
2.695591333E0,2.727328491E0,-1.052027298E1,3.185375977E-1
2.705560333E0,3.576063538E0,-9.163195038E0,-1.779798889E0
2.715529333E0,1.833088074E0,-9.100625153E0,-3.094963989E0
2.725498333E0,8.584648132E-1,-9.691446533E0,-6.819818115E-1
2.735467333E0,1.267115021E0,-1.009201355E1,1.941612396E0
2.745436333E0,2.526895294E0,-1.040591080E1,2.928061066E0
2.755406333E0,3.526965637E0,-1.109328140E1,2.068398743E0
2.765375333E0,3.381019135E0,-1.119297409E1,2.209405518E-1
2.775344333E0,2.364632721E0,-1.031819321E1,-1.007554779E0
2.785313333E0,1.609602814E0,-9.923164673E0,-8.524772644E-1
2.795282333E0,2.353256378E0,-9.190588074E0,5.807922363E-1
2.805251333E0,2.914140015E0,-8.612190857E0,6.707551575E-1
2.815220333E0,2.687960358E0,-8.336164856E0,3.474275208E-1
2.825189333E0,2.202220459E0,-8.298293610E0,2.592608643E-1
2.835158333E0,2.073338470E0,-8.085585938E0,2.091151428E-1
2.845127333E0,1.950743408E0,-8.058941345E0,2.730322266E-1
2.855096333E0,1.736239471E0,-8.356372833E0,1.420545959E-1
2.865065333E0,1.433419189E0,-8.619226227E0,-2.799179077E-2
2.875034333E0,1.163231049E0,-8.941655731E0,2.255809021E-1
2.885003333E0,1.030008087E0,-9.060209198E0,4.029620361E-1
2.894972333E0,9.901908875E-1,-9.197623444E0,5.327421570E-1
2.904941333E0,9.101074219E-1,-9.392967224E0,5.742059326E-1
2.914910333E0,6.849755859E-1,-9.243877258E0,2.164498901E-1
2.924879333E0,4.466711426E-1,-9.174421692E0,-2.574645996E-2
2.934848333E0,2.050735474E-2,-8.935817871E0,-5.489085388E-1
2.944817333E0,-3.218307495E-1,-9.001980286E0,-3.987707520E-1
2.954786333E0,-2.932402039E-1,-8.923842773E0,9.422904968E-1
2.964755333E0,-5.153782654E-1,-9.082961884E0,1.858984222E0
2.974724333E0,-1.142274628E0,-9.374555511E0,2.027084656E0
2.984693333E0,-2.144889679E0,-8.452323303E0,1.006956024E0
2.994662333E0,-2.442021790E0,-7.070846100E0,-1.176553345E0
3.004630542E0,-2.584974518E0,-6.591243439E0,-1.797761536E0
3.014599542E0,-1.326541443E0,-7.315886536E0,-5.360353088E-1
3.024568542E0,-1.423539734E-1,-8.580157471E0,1.166673889E0
3.034537542E0,4.813989258E-1,-9.415570221E0,2.402354279E0
3.044506542E0,8.779243469E-1,-9.958790588E0,2.462229767E0
3.054475542E0,5.282514954E-1,-9.985135803E0,1.574725342E-1
3.064444542E0,4.204756165E-1,-9.407337341E0,-9.862989807E-1
3.074413542E0,5.411247253E-1,-9.427844696E0,-6.316864014E-2
3.084382542E0,6.441105652E-1,-1.017434235E1,1.358874207E0
3.094351542E0,-4.881349182E-1,-1.570459213E1,-6.990463257E-2
3.104320542E0,-1.546583862E0,-2.537702820E1,-1.632654877E0
3.114289542E0,1.834584961E0,-2.387265656E1,-9.485774231E-1
3.124258542E0,3.476370850E0,-1.257744507E1,1.299597473E0
3.134227542E0,3.782633972E-1,-8.383167114E0,1.256187744E0
3.144197542E0,-8.508306885E-1,-7.805368652E0,4.082011414E-1
3.154166542E0,-1.594633942E0,-7.426356812E0,3.638932800E-1
3.164135542E0,-2.045795746E0,-8.111482086E0,3.366499329E-1
3.174104542E0,-1.594334564E0,-9.253756714E0,6.908134460E-1
3.184073542E0,-1.156195679E0,-9.871821442E0,8.378077698E-1
3.194042542E0,-1.125509491E0,-9.729617157E0,6.798861694E-1
3.204011542E0,-1.302591248E0,-9.713001709E0,3.951782227E-1
3.213980542E0,-1.704804840E0,-9.226812744E0,6.459068298E-1
3.223949542E0,-2.164199524E0,-8.844208374E0,3.641926575E-1
3.233918542E0,-2.019151154E0,-1.093221634E1,2.062710571E-1
3.243887542E0,-1.152453461E0,-1.004486160E1,9.559121704E-1
3.253856542E0,-1.355581055E0,-9.986033936E0,6.312373352E-1
3.263825542E0,-1.496288452E0,-9.741292877E0,6.215075684E-1
3.273794542E0,-1.823657684E0,-9.506880341E0,5.908213806E-1
3.283763542E0,-2.000889130E0,-9.474098511E0,6.996450806E-1
3.293732542E0,-1.912123718E0,-9.574839020E0,6.327342224E-1
3.303701542E0,-1.904938660E0,-9.595346375E0,7.397616577E-1
3.313670542E0,-1.862127686E0,-9.670639801E0,7.006929016E-1
3.323639542E0,-1.865570526E0,-9.721833344E0,6.691085815E-1
3.333608542E0,-1.707948303E0,-9.633816376E0,5.499563599E-1
3.343577542E0,-1.584305420E0,-9.707762604E0,5.405259705E-1
3.353546542E0,-1.516047363E0,-9.731862488E0,5.340893555E-1
3.363515542E0,-1.450783081E0,-9.725725250E0,4.450245667E-1
3.373484542E0,-1.414408722E0,-9.690548401E0,3.972738647E-1
3.383453542E0,-1.408421173E0,-9.654922485E0,3.683839417E-1
3.393422542E0,-1.391506348E0,-9.590107269E0,3.212319946E-1
3.403391542E0,-1.381477203E0,-9.602980499E0,3.135978699E-1
3.413360542E0,-1.464853821E0,-9.617350616E0,3.306623840E-1
3.423329542E0,-1.574575653E0,-9.604776764E0,2.921923828E-1
