"Time (s)","X (rad/s)","Y (rad/s)","Z (rad/s)"
6.446583313E-3,-4.020413458E-1,-1.063599229E0,-6.745383888E-2
1.641558332E-2,-5.984529257E-1,-1.184607029E0,-1.002892852E-1
2.638458333E-2,-7.736727595E-1,-1.234408975E0,-1.349242628E-1
3.635358333E-2,-8.436169624E-1,-1.189492822E0,-1.445537210E-1
4.632258334E-2,-8.033196926E-1,-1.044960260E0,-1.600314677E-1
5.629258335E-2,-7.352311611E-1,-9.007998705E-1,-2.204404771E-1
6.626158336E-2,-7.240585685E-1,-9.620612860E-1,-3.211447597E-1
7.623058336E-2,-8.067159057E-1,-8.812846541E-1,-4.838790596E-1
8.619958331E-2,-9.557277560E-1,-8.908972740E-1,-5.573441982E-1
9.616858332E-2,-1.136893630E0,-9.485145211E-1,-5.915546417E-1
1.061375833E-1,-1.311444402E0,-1.078333139E0,-5.798804164E-1
1.161065833E-1,-1.431355357E0,-1.286727905E0,-5.424611568E-1
1.260755833E-1,-1.471192598E0,-1.579318285E0,-4.872913361E-1
1.360445833E-1,-1.494220138E0,-1.953878045E0,-4.451036751E-1
1.460135833E-1,-1.549752712E0,-2.325548172E0,-4.717464447E-1
1.559825834E-1,-1.598455787E0,-2.427367210E0,-5.015466809E-1
1.659515834E-1,-1.606937885E0,-2.304475307E0,-4.739204049E-1
1.759205834E-1,-1.576444387E0,-2.027046919E0,-4.122186899E-1
1.858895833E-1,-1.501151085E0,-1.718446374E0,-3.640402257E-1
1.958585833E-1,-1.341158152E0,-1.482317209E0,-3.625310063E-1
2.058275833E-1,-1.075996876E0,-1.358414888E0,-4.107632935E-1
2.157965833E-1,-7.403520346E-1,-1.321868300E0,-5.285010934E-1
2.257655833E-1,-3.647283316E-1,-1.368054748E0,-7.145034671E-1
2.357345833E-1,2.453476191E-2,-1.458548665E0,-9.465643764E-1
2.457035834E-1,3.873878121E-1,-1.572075367E0,-1.177710533E0
2.556725834E-1,7.003518343E-1,-1.712450147E0,-1.316611409E0
2.656415834E-1,9.720560908E-1,-1.873924017E0,-1.319857001E0
2.756105833E-1,1.218633056E0,-1.978454351E0,-1.233406067E0
2.855795833E-1,1.413554549E0,-1.973251820E0,-1.101536632E0
2.955485833E-1,1.546658039E0,-1.819524646E0,-9.864845872E-1
3.055175833E-1,1.610561252E0,-1.614685535E0,-9.241262078E-1
3.154865833E-1,1.590712190E0,-1.454179525E0,-9.497543573E-1
3.254555833E-1,1.446445704E0,-1.453549981E0,-1.023208857E0
3.354245833E-1,1.040934920E0,-1.123472452E0,-1.071750760E0
3.453935834E-1,6.351230741E-1,-1.010568738E0,-1.400636315E0
3.553625834E-1,1.128977016E-1,-2.974745035E-1,-1.518710732E0
3.653315834E-1,-2.926401496E-1,3.163500130E-1,-1.460125208E0
3.753005833E-1,-5.410954952E-1,9.129407406E-1,-1.421491504E0
3.852695833E-1,-7.598800063E-1,1.327233553E0,-1.258689046E0
3.952385833E-1,-9.434903264E-1,1.336279035E0,-1.060423851E0
4.052075833E-1,-1.003771663E0,1.057372689E0,-9.047876000E-1
4.151765833E-1,-9.367244244E-1,6.625029445E-1,-7.769529223E-1
4.251455833E-1,-7.369194031E-1,1.095338389E-1,-6.502006054E-1
4.351145833E-1,-4.421292841E-1,-2.912844419E-1,-4.807005227E-1
4.450835834E-1,-1.035683155E-1,-4.643602073E-1,-3.044291139E-1
4.550525834E-1,1.250318438E-1,-4.343517125E-1,-1.642919779E-1
4.650215833E-1,2.509751916E-1,-1.423250884E-1,-1.486978382E-1
4.749905833E-1,2.434381694E-1,2.259781063E-1,-2.603609562E-1
4.849595833E-1,4.890724272E-2,4.902195036E-1,-3.550789952E-1
4.949295833E-1,-2.551210821E-1,7.318467498E-1,-3.229625821E-1
5.048985833E-1,-4.820101559E-1,8.409009576E-1,-1.851479709E-1
5.148675833E-1,-4.197143018E-1,9.283061624E-1,-8.036110550E-2
5.248365834E-1,-3.295809031E-2,1.158514380E0,9.478380089E-4
5.348055834E-1,5.070582628E-1,1.441352010E0,2.748148143E-1
5.447745834E-1,9.642150998E-1,1.678735018E0,5.657747388E-1
5.547435833E-1,1.359760284E0,2.008859873E0,8.217231631E-1
5.647125833E-1,1.676941752E0,2.419798851E0,1.020385146E0
5.746815833E-1,1.887317061E0,2.770555496E0,1.162336946E0
5.846505833E-1,1.999191880E0,2.790819645E0,1.250246048E0
5.946195833E-1,1.990971208E0,2.196267843E0,1.197173715E0
6.045885833E-1,1.712623954E0,1.520742297E0,8.602737188E-1
6.145575834E-1,9.993771911E-1,1.029300213E0,3.383173645E-1
6.245265834E-1,8.987890929E-2,7.410892248E-1,-1.093038823E-2
6.344955834E-1,-6.050060987E-1,4.873124063E-1,-1.552060694E-1
6.444645833E-1,-9.303151369E-1,1.922319233E-1,-3.753962219E-1
6.544335833E-1,-9.206529260E-1,-1.961535960E-2,-6.514467597E-1
6.644025833E-1,-6.815906167E-1,-1.658645570E-1,-8.154519200E-1
6.743715833E-1,-3.201229572E-1,-4.122799039E-1,-8.670647740E-1
6.843405833E-1,2.788658999E-2,-7.860530615E-1,-8.183243871E-1
6.943095833E-1,2.750455141E-1,-1.020408869E0,-5.826884508E-1
7.042785833E-1,2.408581674E-1,-1.255124092E0,-3.518269658E-1
7.142475834E-1,-9.781689150E-4,-1.257165432E0,-1.677487493E-1
7.242165834E-1,-3.659140468E-1,-9.412817359E-1,-8.253663778E-3
7.341855834E-1,-7.091792226E-1,-7.750847936E-1,1.205517203E-1
7.441545833E-1,-9.459269047E-1,-6.635903716E-1,1.988934278E-1
7.541235833E-1,-9.535294771E-1,-7.070294619E-1,2.554395199E-1
7.640925833E-1,-8.044583201E-1,-8.091139197E-1,3.199780583E-1
7.740615833E-1,-6.349497437E-1,-6.109787226E-1,3.303894103E-1
7.840305833E-1,-4.688266218E-1,-2.266602069E-1,3.015369475E-1
7.939995833E-1,-2.637171447E-1,-2.463946678E-2,3.374432921E-1
8.039685834E-1,1.489831880E-2,5.471501127E-2,4.165748656E-1
8.139375834E-1,3.256109059E-1,2.778080106E-1,5.318439603E-1
8.239065834E-1,6.247900128E-1,5.099921227E-1,6.712816954E-1
8.338755833E-1,8.723092675E-1,5.447303653E-1,7.870810032E-1
8.438445833E-1,1.036952376E0,2.792857885E-1,8.257490396E-1
8.538135833E-1,1.102346539E0,-2.062087208E-1,9.205434918E-1
8.637825833E-1,1.121692300E0,-5.776825547E-1,1.039202452E0
8.737515833E-1,1.146842360E0,-5.618972182E-1,1.086319089E0
8.837205833E-1,1.210023999E0,-1.818145514E-1,1.114693522E0
8.936895833E-1,1.316929221E0,1.060657129E-1,1.113002419E0
9.036585834E-1,1.320066094E0,7.995335758E-2,8.651872873E-1
9.136285834E-1,1.120968938E0,-5.064361095E-1,3.976350129E-1
9.235975833E-1,8.733673096E-1,-1.274045825E0,1.510721147E-1
9.335665833E-1,7.469488978E-1,-1.878148198E0,1.546649933E-1
9.435355833E-1,7.879500985E-1,-2.204125643E0,1.624227613E-1
9.535045833E-1,8.765481114E-1,-2.123135090E0,7.093518972E-2
9.634735833E-1,8.572572470E-1,-1.759781718E0,-1.014674753E-1
9.734425833E-1,6.554026604E-1,-1.440342546E0,-2.696420848E-1
9.834115834E-1,4.324267209E-1,-1.556744456E0,-3.699961603E-1
9.933805834E-1,1.808099449E-1,-1.769042611E0,-4.688958228E-1
1.003349667E0,-9.708827734E-2,-1.984953642E0,-3.527569473E-1
1.013318667E0,-3.162326217E-1,-2.123095989E0,-4.185525700E-2
1.023287667E0,-6.773897260E-2,-2.436595678E0,1.453346014E-1
1.033256667E0,3.768715262E-1,-2.666872501E0,3.604432568E-2
1.043225667E0,3.835973442E-1,-3.032054186E0,-4.378920794E-1
1.053194667E0,2.125747502E-1,-2.990334272E0,-8.317871690E-1
1.063163667E0,-1.438894570E-1,-1.113683462E0,-7.583249807E-1
1.073132667E0,-7.915385067E-3,7.915174365E-1,-1.409874707E-1
1.083101667E0,1.587481648E-1,2.196370840E0,2.563495338E-1
1.093070667E0,9.938071668E-2,2.282409191E0,1.877547503E-1
1.103039667E0,-9.484664351E-2,1.684085727E0,8.520517498E-2
1.113008667E0,-2.743663490E-1,1.429641247E0,5.496870354E-2
1.122977667E0,-3.177075982E-1,1.452893257E0,7.906608284E-2
1.132946667E0,-2.231877744E-1,1.582346678E0,4.220777452E-1
1.142915667E0,-2.569496632E-2,1.370725751E0,7.432799935E-1
1.152884667E0,2.438531518E-1,4.139467776E-1,8.519561291E-1
1.162853667E0,5.411065221E-1,-9.589381814E-1,8.446220756E-1
1.172822667E0,4.541010559E-1,-9.598180652E-1,5.984972715E-1
1.182791667E0,9.788562357E-2,-4.386320114E-1,4.537369013E-1
1.192760667E0,-4.375892580E-1,2.282839864E-1,6.147065759E-1
1.202729667E0,-9.983882308E-1,9.491266012E-1,7.333996892E-1
1.212698667E0,-1.413371921E0,1.251115203E0,7.199240923E-1
1.222667667E0,-1.603915811E0,1.409964323E0,6.644145250E-1
1.232636667E0,-1.495502591E0,1.412522793E0,5.994206667E-1
1.242605667E0,-1.124229908E0,1.043367624E0,6.546947360E-1
1.252574667E0,-6.717372537E-1,4.379588962E-1,8.956711292E-1
1.262543667E0,-2.585494518E-1,-2.971124351E-1,1.285985112E0
1.272512667E0,1.228082851E-1,-1.363071918E0,1.712188601E0
1.282481667E0,5.333861113E-1,-2.203261852E0,1.963522077E0
1.292450667E0,8.933759332E-1,-2.646776438E0,1.819957733E0
1.302419667E0,1.082470059E0,-2.771212101E0,1.297999740E0
1.312388667E0,9.710242748E-1,-2.641458273E0,6.808017492E-1
1.322357667E0,5.851627588E-1,-2.080476284E0,2.861750424E-1
1.332326667E0,1.632010937E-1,-1.369681835E0,1.649327874E-1
1.342296667E0,-1.471140683E-1,-1.015676141E0,2.551575005E-1
1.352265667E0,-4.485953450E-1,-8.532696366E-1,4.472278655E-1
1.362234667E0,-7.640714645E-1,-7.954233885E-1,5.737389326E-1
1.372203667E0,-8.458025455E-1,-1.224531651E0,5.975534320E-1
1.382172667E0,-7.405658960E-1,-1.690814614E0,5.564504862E-1
1.392141667E0,-5.533653498E-1,-1.929804087E0,4.420498908E-1
1.402110667E0,-3.544856608E-1,-1.980255842E0,2.632702589E-1
1.412079667E0,-2.401585281E-1,-2.310175657E0,2.073875666E-1
1.422048667E0,-1.524761915E-1,-2.817129374E0,2.659507692E-1
1.432017667E0,8.432435989E-2,-3.134685516E0,2.397423238E-1
1.441986667E0,3.204098046E-1,-3.011447906E0,1.344861835E-1
1.451955667E0,2.509508431E-1,-2.653805494E0,1.006376818E-1
1.461924667E0,-1.137747318E-1,-2.338508606E0,1.987314969E-1
1.471893667E0,-5.961613655E-1,-2.106692076E0,4.039821029E-1
1.481862667E0,-1.011075258E0,-2.081637144E0,6.782285571E-1
1.491831667E0,-1.228131890E0,-2.294998169E0,9.720340967E-1
1.501800667E0,-1.251268029E0,-2.619238138E0,1.266793609E0
1.511769667E0,-1.142649174E0,-2.761683226E0,1.659185290E0
1.521738667E0,-9.549071193E-1,-2.874699593E0,2.043667793E0
1.531707667E0,-6.362740397E-1,-3.097867727E0,2.220850706E0
1.541676667E0,-2.949032485E-1,-3.279061079E0,2.276326180E0
1.551645667E0,-8.720599860E-2,-3.468488932E0,2.217060089E0
1.561614667E0,-2.656242251E-2,-3.647859573E0,2.017424107E0
1.571583667E0,-1.037714556E-1,-3.773745537E0,1.996941805E0
1.581552667E0,-1.504214257E-1,-3.795972586E0,2.244669199E0
1.591521667E0,-8.552338183E-2,-3.679894686E0,2.555559635E0
1.601490667E0,4.648397490E-2,-3.510708094E0,2.900045156E0
1.611459667E0,1.099865213E-1,-3.219740152E0,3.317806244E0
1.621428667E0,-2.861062996E-2,-2.902400255E0,3.763760090E0
1.631397667E0,-3.676257133E-1,-2.654209375E0,4.044363976E0
1.641366667E0,-8.174170256E-1,-2.550077200E0,4.010210514E0
1.651335667E0,-1.160987258E0,-2.571075678E0,3.706011772E0
1.661304667E0,-1.167355537E0,-2.753474236E0,3.331714630E0
1.671273667E0,-7.132061124E-1,-3.129064560E0,3.271621227E0
1.681242667E0,5.148183927E-2,-3.664409637E0,3.550705433E0
1.691211667E0,8.658133745E-1,-4.137468338E0,3.684685469E0
1.701180667E0,1.558040619E0,-4.264678955E0,3.656157732E0
1.711149667E0,1.982126117E0,-4.056050777E0,3.490381241E0
1.721118667E0,2.057239532E0,-3.633846760E0,3.198534727E0
1.731087667E0,1.903564095E0,-3.013079882E0,3.032655954E0
1.741056667E0,1.663408399E0,-2.405446529E0,2.993855953E0
1.751026667E0,1.513167739E0,-2.022869587E0,3.055536509E0
1.760995667E0,1.544203639E0,-1.904726982E0,3.245162964E0
1.770964667E0,1.755795002E0,-1.880179048E0,3.439097404E0
1.780933667E0,2.064486980E0,-1.937165737E0,3.445823669E0
1.790902667E0,2.320579052E0,-2.068856716E0,3.189050674E0
1.800871667E0,2.496187687E0,-2.137517214E0,2.699497700E0
1.810840667E0,2.588043451E0,-2.194939613E0,2.182412148E0
1.820809667E0,2.619090080E0,-2.153112888E0,1.893459082E0
1.830778667E0,2.611905813E0,-2.002471685E0,1.738524556E0
1.840747667E0,2.567991018E0,-1.768285155E0,1.660816789E0
1.850716667E0,2.467974901E0,-1.450772166E0,1.618586779E0
1.860685667E0,2.359912872E0,-1.110878825E0,1.495996714E0
1.870654667E0,2.254123926E0,-8.254796267E-1,1.264410019E0
1.880623667E0,1.984484196E0,-9.097449183E-1,9.199677110E-1
1.890592667E0,1.200133562E0,-1.518319368E0,5.558581948E-1
1.900561667E0,6.195816994E-1,-1.558878183E0,5.632577538E-1
1.910530667E0,2.600874007E-1,-1.416613221E0,6.436207891E-1
1.920499667E0,3.316523135E-1,-1.032265544E0,8.335321546E-1
1.930468667E0,3.989522755E-1,-9.095265865E-1,7.963722348E-1
1.940437667E0,7.725760341E-1,-6.320374012E-1,4.361642897E-1
1.950406667E0,1.084777474E0,-8.717586398E-1,2.780399024E-1
1.960375667E0,1.380694747E0,-1.058938622E0,3.428585827E-1
1.970344667E0,1.509868979E0,-1.160051942E0,2.663153410E-1
1.980313667E0,1.557164073E0,-1.248419642E0,9.622296691E-2
1.990282667E0,2.128324032E0,-7.665028572E-1,-1.335865259E-1
2.000252333E0,2.089027882E0,-1.209247112E0,-1.184507310E-1
2.010221333E0,1.336883068E0,-1.432297230E0,-2.662236691E-1
2.020190333E0,1.258865714E0,-6.108815670E-1,-9.863840789E-2
2.030159333E0,9.012892246E-1,-3.602304161E-1,2.205110788E-1
2.040128333E0,4.649964273E-1,-4.233588278E-1,4.060966969E-1
2.050097333E0,5.199904442E-1,-2.239889950E-1,6.661924124E-1
2.060066333E0,6.339432001E-1,-3.500507176E-1,9.556287527E-1
2.070035333E0,7.544725537E-1,-6.302501559E-1,1.023901343E0
2.080004333E0,8.886616826E-1,-9.835072756E-1,9.993778467E-1
2.089973333E0,9.381376505E-1,-1.219864130E0,9.004981518E-1
2.099942333E0,8.739951253E-1,-1.147977948E0,8.267232180E-1
2.109911333E0,6.495594382E-1,-8.714878559E-1,9.120399952E-1
2.119880333E0,3.851355910E-1,-4.795426428E-1,9.123654366E-1
2.129850333E0,1.733141541E-1,-2.053441107E-1,8.684185147E-1
2.139819333E0,1.365569383E-1,-7.526173443E-2,7.987784147E-1
2.149788333E0,1.305778772E-1,-2.155381590E-1,7.755542994E-1
2.159757333E0,-4.323709756E-2,-3.909862041E-1,9.117941856E-1
2.169726333E0,-2.049389035E-1,-4.916236103E-1,1.105324030E0
2.179695333E0,-2.821975648E-1,-6.065914631E-1,1.284769893E0
2.189664333E0,-2.438927889E-1,-8.549472094E-1,1.299608231E0
2.199633333E0,-7.189971954E-2,-1.292237520E0,1.496561527E0
2.209602333E0,1.802062839E-1,-1.541226029E0,1.578190088E0
2.219571333E0,3.251807094E-1,-1.518056273E0,1.639215827E0
2.229540333E0,3.668011427E-1,-1.492028475E0,1.700068593E0
2.239509333E0,3.116423786E-1,-1.347077847E0,1.543810725E0
2.249478333E0,2.963044345E-1,-1.043592691E0,1.419046760E0
2.259447333E0,3.337609172E-1,-3.383129537E-1,1.276129484E0
2.269416333E0,3.184821010E-1,4.138766527E-1,1.131955624E0
2.279385333E0,2.804269493E-1,1.035904884E0,1.019924641E0
2.289354333E0,2.312793583E-1,1.550845742E0,9.122986197E-1
2.299323333E0,1.168344617E-1,1.730695724E0,1.028490186E0
2.309292333E0,7.508248836E-2,1.763906717E0,9.483996630E-1
2.319261333E0,-3.169386461E-2,1.504715919E0,9.114184380E-1
2.329230333E0,-8.121854067E-2,1.130946875E0,8.483843207E-1
2.339199333E0,-1.511034518E-1,8.090971112E-1,6.902043223E-1
2.349168333E0,-2.065462023E-1,7.977461815E-1,4.997574091E-1
2.359137333E0,-2.177010179E-1,1.114601851E0,3.335582614E-1
2.369106333E0,-3.386484683E-1,1.553488374E0,2.578669786E-1
2.379075333E0,-1.253839880E-1,1.429342389E0,6.818521023E-2
2.389044333E0,7.349023223E-2,1.078354359E0,6.196668837E-3
2.399013333E0,1.563545465E-1,7.963140607E-1,3.389912471E-2
2.408982333E0,1.604864448E-1,5.803207755E-1,1.754012518E-2
2.418951333E0,4.736799747E-2,3.649554253E-1,-2.993869036E-2
2.428920333E0,-1.401193440E-1,4.438611567E-1,3.245677799E-2
2.438889333E0,-4.022754729E-1,9.177939296E-1,2.440023124E-1
2.448858333E0,-5.064346194E-1,2.433647394E0,5.115602612E-1
2.458827333E0,-6.930391192E-1,2.287628651E0,9.346808791E-1
2.468796333E0,-3.804199398E-1,1.564366102E0,4.605998695E-1
2.478765333E0,-2.513391078E-1,1.319780588E0,2.001648247E-1
2.488734333E0,-1.827270091E-1,1.547832608E0,3.793441653E-1
2.498703333E0,-2.676967084E-1,1.745362163E0,5.030045509E-1
2.508672333E0,-3.126167953E-1,1.334067345E0,6.532337666E-1
2.518641333E0,-2.779765427E-1,5.480973125E-1,6.907704473E-1
2.528610333E0,-3.561845124E-1,-1.814008504E-1,7.542314529E-1
2.538579333E0,-6.251820326E-1,-7.138985395E-1,8.455539942E-1
2.548549333E0,-9.836805463E-1,-8.721281290E-1,9.103132486E-1
2.558518333E0,-1.393412948E0,-9.374459386E-1,9.859815836E-1
2.568487333E0,-1.725517869E0,-9.480314851E-1,1.061309099E0
2.578456333E0,-1.933657885E0,-8.045456409E-1,9.383461475E-1
2.588425333E0,-1.959148049E0,-2.759244442E-1,4.890437424E-1
2.598394333E0,-1.941550255E0,-4.059892595E-1,1.575316042E-1
2.608363333E0,-1.823046565E0,-9.230342507E-1,-3.492221534E-1
2.618332333E0,-1.846702576E0,-6.952962279E-1,-5.107812285E-1
2.628301333E0,-1.925936937E0,-2.287769914E-1,-2.580495365E-2
2.638270333E0,-1.666282654E0,5.180243254E-1,5.460897088E-1
2.648239333E0,-1.341988444E0,3.359704018E-1,1.043873906E0
2.658208333E0,-1.008259654E0,2.239470184E-1,1.327000499E0
2.668177333E0,-5.771058798E-1,2.003250271E-2,1.429587483E0
2.678146333E0,-2.563403547E-1,-7.889918983E-2,1.486838102E0
2.688115333E0,1.643845439E-2,1.000100493E0,1.838083148E0
2.698084333E0,4.058563709E-2,1.120121002E0,2.442701578E0
2.708053333E0,-7.762542367E-2,2.767276764E-1,2.426381350E0
2.718022333E0,-2.457741052E-1,-3.245789111E-1,2.254417419E0
2.727991333E0,-2.456055284E-1,-3.903259635E-1,2.066774845E0
2.737960333E0,-3.377896920E-2,-2.246333361E-1,1.696799040E0
2.747929333E0,2.283098996E-1,-1.517913342E-1,1.309821963E0
2.757898333E0,3.354044259E-1,-3.047480285E-1,1.251064658E0
2.767867333E0,3.092939854E-1,-6.031125784E-1,1.401381969E0
2.777836333E0,2.806461155E-1,-1.068355918E0,1.707980514E0
2.787805333E0,2.220536321E-1,-9.669623971E-1,1.785562396E0
2.797774333E0,1.442848593E-1,-6.577625275E-1,1.701654434E0
2.807743333E0,5.749404430E-2,-4.062051177E-1,1.580005050E0
2.817712333E0,1.504645124E-2,-2.288012803E-1,1.530505657E0
2.827681333E0,2.844241820E-2,-2.361273617E-1,1.366902113E0
2.837650333E0,6.008520722E-2,-3.000976145E-1,1.105578303E0
2.847619333E0,7.866395265E-2,-3.719244003E-1,8.730963469E-1
2.857588333E0,6.677266955E-2,-4.610804021E-1,7.059789896E-1
2.867557333E0,4.832336307E-2,-4.681899548E-1,6.138176322E-1
2.877526333E0,4.254457355E-2,-3.705695570E-1,5.336157680E-1
2.887495333E0,1.070828214E-1,-2.370104194E-1,4.198987782E-1
2.897464333E0,2.052472234E-1,-9.442973137E-2,2.849044502E-1
2.907433333E0,1.819054186E-1,-4.847915377E-3,1.583249420E-1
2.917402333E0,1.000704467E-1,2.178598568E-2,5.001900718E-2
2.927371333E0,-6.889407337E-2,-2.337590232E-2,-4.964686930E-2
2.937340333E0,-4.798811674E-2,-1.146845594E-1,-9.903869033E-2
2.947310333E0,-4.289721698E-2,-1.644347794E-2,-5.354790762E-2
2.957279333E0,-4.820711166E-2,1.642121077E-1,1.311457902E-1
2.967248333E0,1.040039957E-1,4.468070269E-1,5.078635216E-1
2.977217333E0,3.822236955E-1,8.593851924E-1,1.201279044E0
2.987186333E0,2.992214859E-1,9.668378830E-1,1.834250927E0
2.997155333E0,4.151457548E-2,7.722482085E-1,2.386097431E0
3.007123542E0,-2.337441035E-2,4.620347321E-1,2.484883070E0
3.017092542E0,1.244973093E-1,2.714008093E-1,2.238550186E0
3.027061542E0,2.794589102E-1,3.928889036E-1,1.884094357E0
3.037030542E0,2.702845335E-1,7.642426491E-1,1.558699965E0
3.046999542E0,1.262488067E-1,6.684650183E-1,1.294443846E0
3.056968542E0,-4.922310356E-3,2.251214832E-1,1.040463448E0
3.066937542E0,1.756999344E-1,-1.940161288E-1,7.643474936E-1
3.076906542E0,4.797547460E-1,-1.591685712E-1,5.565980077E-1
3.086875542E0,4.957070947E-1,-6.836063415E-2,6.758626103E-1
3.096844542E0,3.106066883E-1,-2.768780589E-1,1.239252210E0
3.106813542E0,9.521635622E-2,-5.137433410E-1,1.101515651E0
3.116782542E0,-1.354663521E-1,-1.320347935E-1,8.557084948E-2
3.126751542E0,-2.108167708E-1,2.435303181E-1,-2.248770446E-1
3.136720542E0,-1.576108038E-1,1.979026347E-1,-1.406748146E-1
3.146689542E0,-9.392557293E-2,2.453244757E-3,-4.646388814E-2
3.156658542E0,-7.904655486E-2,-1.949459463E-1,2.479412593E-3
3.166627542E0,-5.874128267E-2,-3.188857436E-1,1.430624537E-2
3.176596542E0,-5.806545913E-2,-3.249783218E-1,1.994363219E-2
3.186565542E0,-6.435504556E-2,-2.710074782E-1,2.855096757E-2
3.196534542E0,-7.656086981E-2,-2.790584266E-1,1.808822155E-2
3.206503542E0,-3.002692573E-2,-2.939729393E-1,6.361176819E-2
3.216472542E0,1.217971370E-1,-4.259053171E-1,-1.064143982E-2
3.226441542E0,1.030096505E-2,-4.693281353E-1,4.723171145E-2
3.236410542E0,-4.011646286E-2,-2.462733239E-1,2.355007641E-2
3.246379542E0,-6.124252081E-2,-1.263791323E-1,2.969425544E-2
3.256348542E0,-5.091611296E-2,-4.240700975E-2,1.099060941E-2
3.266317542E0,-4.601030424E-2,-9.929493070E-3,-2.585653681E-3
3.276286542E0,-4.279136658E-2,1.116092876E-2,-5.164109636E-3
3.286255542E0,-4.184887558E-2,2.351457719E-3,2.947079949E-3
3.296224542E0,-3.361757845E-2,2.308496460E-2,4.235517234E-3
3.306193542E0,-2.096303552E-2,4.046075791E-2,8.744781837E-3
3.316162542E0,-1.250723284E-2,6.561058760E-2,1.595792128E-3
3.326131542E0,-1.366251241E-2,8.286334574E-2,4.597973544E-3
