"Time (s)","X (rad/s)","Y (rad/s)","Z (rad/s)"
9.078374947E-3,3.344855607E-1,-1.015103515E-2,-7.065480202E-2
1.907237491E-2,2.621804774E-1,1.757779717E-2,-3.167890757E-2
2.906637499E-2,1.495447457E-1,8.076254278E-2,-6.118037272E-4
3.905937495E-2,1.840483770E-2,1.331730336E-1,9.720196016E-3
4.905337491E-2,-7.730799168E-2,1.651206166E-1,1.148871332E-2
5.904737499E-2,-1.254685968E-1,1.998471618E-1,1.856792904E-2
6.904137495E-2,-1.531999260E-1,2.510665655E-1,1.549728774E-2
7.903537492E-2,-1.630253941E-1,2.846362591E-1,7.446285803E-3
8.902837499E-2,-1.438287348E-1,3.085785806E-1,-4.282969167E-4
9.902237495E-2,-1.065783054E-1,3.115850091E-1,-2.402683347E-2
1.090163749E-1,-6.826898456E-2,2.884216011E-1,-5.441094190E-2
1.190103750E-1,-4.882232100E-2,2.689189911E-1,-8.472916484E-2
1.290033750E-1,-5.800722912E-2,2.438104153E-1,-1.109706685E-1
1.389973749E-1,-7.725229859E-2,2.197903097E-1,-1.159414575E-1
1.489913750E-1,-1.241622567E-1,1.837719679E-1,-1.049236357E-1
1.589853750E-1,-1.910070628E-1,1.414894909E-1,-1.027965695E-1
1.689793749E-1,-2.436654866E-1,1.016986817E-1,-1.010316908E-1
1.789723750E-1,-2.700627148E-1,4.213601351E-2,-9.186296165E-2
1.889663750E-1,-2.866076529E-1,1.393514406E-2,-1.071799248E-1
1.989603749E-1,-3.037624061E-1,-1.337317564E-2,-1.110247299E-1
2.089543750E-1,-3.120827675E-1,-2.243548632E-2,-9.039110690E-2
2.189483750E-1,-3.213228583E-1,-1.648944803E-2,-7.423051447E-2
2.289413749E-1,-3.105189204E-1,-3.295630589E-2,-6.278637797E-2
2.389353750E-1,-2.763804197E-1,-8.788080513E-2,-8.674763888E-2
2.489293750E-1,-2.200261205E-1,-1.578728557E-1,-1.607796252E-1
2.589233749E-1,-1.302227378E-1,-2.371029705E-1,-2.599062026E-1
2.689173750E-1,-1.674385369E-2,-3.400827944E-1,-3.234375715E-1
2.789103750E-1,9.010110050E-2,-3.744085431E-1,-3.549203873E-1
2.889043749E-1,1.836768687E-1,-3.252971768E-1,-3.735092580E-1
2.988983750E-1,2.623602152E-1,-1.554069668E-1,-3.925657868E-1
3.088923750E-1,3.041740060E-1,4.664552212E-2,-3.628273904E-1
3.188853749E-1,3.071264029E-1,2.165674418E-1,-2.789697647E-1
3.288793750E-1,2.737035155E-1,3.706315160E-1,-1.780575216E-1
3.388733750E-1,1.758198440E-1,4.501987696E-1,-1.039667726E-1
3.488673749E-1,4.201596975E-2,3.867835701E-1,-3.690518439E-2
3.588613750E-1,-7.708884031E-2,1.763605624E-1,4.162397981E-2
3.688543750E-1,-4.967747256E-2,-7.650677860E-2,1.631102860E-1
3.788483749E-1,2.034032494E-1,-2.586193383E-1,2.831285894E-1
3.888423750E-1,5.574110746E-1,-4.906163216E-1,3.311500549E-1
3.988363750E-1,1.037189960E0,-8.035050035E-1,1.945149750E-1
4.088303749E-1,1.604336739E0,-1.135635972E0,-7.900998741E-2
4.188233750E-1,2.186686516E0,-1.447235942E0,-2.687117457E-1
4.288173750E-1,2.705750942E0,-1.734738946E0,-2.423322797E-1
4.388113749E-1,2.897537470E0,-2.170616627E0,-1.001982987E-1
4.488053749E-1,2.570608854E0,-2.709136724E0,1.858040988E-1
4.587993750E-1,1.871040583E0,-2.815093040E0,5.355775356E-1
4.687923749E-1,1.291007519E0,-2.496810913E0,7.774944901E-1
4.787863749E-1,8.600804210E-1,-2.127885103E0,7.516919374E-1
4.887803750E-1,2.107267827E-1,-1.948747039E0,4.666256607E-1
4.987743750E-1,-7.273232341E-1,-1.715897083E0,1.074757725E-1
5.087673750E-1,-1.560427070E0,-1.168486953E0,-1.602672487E-1
5.187613750E-1,-2.207419634E0,-6.301217079E-1,-2.909038365E-1
5.287553750E-1,-2.521058321E0,-3.809879422E-1,-1.911303401E-1
5.387493749E-1,-2.432846785E0,-3.295670748E-1,3.059449494E-1
5.487433750E-1,-2.219995975E0,-3.647138774E-1,5.899771452E-1
5.587363750E-1,-2.074250698E0,-6.619412899E-1,5.453609228E-1
5.687303749E-1,-1.920154452E0,-9.581014514E-1,5.631364584E-1
5.787243750E-1,-1.708584666E0,-1.172575831E0,7.340317965E-1
5.887183750E-1,-1.499304533E0,-1.378757119E0,9.416511059E-1
5.987123749E-1,-1.368467927E0,-1.665407300E0,1.049556255E0
6.087053750E-1,-1.367532611E0,-2.001526594E0,1.084069967E0
6.186993750E-1,-1.444937468E0,-2.254392862E0,1.141394019E0
6.286933749E-1,-1.539613366E0,-2.365105629E0,1.169494748E0
6.386874999E-1,-1.748219252E0,-2.264139891E0,1.141287565E0
6.486815000E-1,-2.152179956E0,-2.010489941E0,1.085804701E0
6.586745000E-1,-2.636996508E0,-1.662555814E0,1.036656141E0
6.686684999E-1,-2.873188734E0,-1.364983797E0,1.079772711E0
6.786625000E-1,-3.058234215E0,-1.285348654E0,1.251997948E0
6.886565000E-1,-3.290346622E0,-1.448957801E0,1.404553175E0
6.986494999E-1,-3.425487757E0,-1.687106013E0,1.471502662E0
7.086435000E-1,-3.339427948E0,-1.981747270E0,1.531880975E0
7.186375000E-1,-3.040583372E0,-2.254705906E0,1.646116972E0
7.286314999E-1,-2.599488974E0,-2.429021120E0,1.829500318E0
7.386255000E-1,-2.135427475E0,-2.363863230E0,1.958704114E0
7.486185000E-1,-1.834394932E0,-2.021873236E0,2.097844124E0
7.586124999E-1,-1.339831591E0,-1.546761751E0,2.200508833E0
7.686065000E-1,-1.037925601E0,-1.155819178E0,2.455402374E0
7.786005000E-1,-1.161957026E0,-8.407369852E-1,2.691397905E0
7.885944999E-1,-1.540423751E0,-6.583068967E-1,2.749575853E0
7.985875000E-1,-2.034899950E0,-5.205159783E-1,2.734886646E0
8.085815000E-1,-2.428234339E0,-2.660510242E-1,2.719576836E0
8.185754999E-1,-2.629139662E0,1.829413697E-2,2.680392742E0
8.285695000E-1,-2.578186035E0,3.372844458E-1,2.497305870E0
8.385635000E-1,-2.325781822E0,6.944546103E-1,2.186862946E0
8.485564999E-1,-1.990787387E0,9.687269330E-1,1.845894933E0
8.585505000E-1,-1.674170852E0,1.165083408E0,1.587990165E0
8.685445000E-1,-1.523370624E0,1.294727921E0,1.468898177E0
8.785384999E-1,-1.611401081E0,1.478034616E0,1.457989097E0
8.885325000E-1,-1.780602694E0,1.756310105E0,1.567313552E0
8.985255000E-1,-1.774480343E0,2.013118505E0,1.676641345E0
9.085194999E-1,-1.584480524E0,2.150513411E0,1.728546619E0
9.185135000E-1,-1.267617702E0,2.071876049E0,1.750486255E0
9.285075000E-1,-8.388839960E-1,1.927859426E0,1.660909653E0
9.385004999E-1,-4.487644434E-1,1.776940703E0,1.510520935E0
9.484945000E-1,-2.442227304E-1,1.547493219E0,1.311697721E0
9.584885000E-1,-2.626736760E-1,1.204715848E0,1.119233966E0
9.684824999E-1,-4.615658522E-1,8.960614204E-1,1.005099773E0
9.784765000E-1,-9.296160936E-1,4.617800415E-1,8.012982011E-1
9.884695000E-1,-1.690808296E0,-8.944983780E-2,2.525694370E-1
9.984634999E-1,-2.407269239E0,-2.752207518E-1,-1.581576169E-1
1.008457500E0,-2.881020069E0,-3.380124569E-1,-1.755984724E-1
1.018451500E0,-3.199023724E0,-6.722599864E-1,-2.520977855E-1
1.028445500E0,-3.382410288E0,-1.234688997E0,-3.385132551E-1
1.038438500E0,-3.424120903E0,-1.670585394E0,-3.497467339E-1
1.048432500E0,-3.236527443E0,-1.666001678E0,-3.937094808E-1
1.058426500E0,-2.743631363E0,-1.001634598E0,-5.664594173E-1
1.068420500E0,-2.156876564E0,-1.209560111E-1,-7.881413102E-1
1.078414500E0,-1.769333839E0,4.678180516E-1,-9.821174145E-1
1.088407500E0,-1.722526193E0,3.989478052E-1,-1.060357332E0
1.098401500E0,-1.682023764E0,3.705459088E-2,-9.755654931E-1
1.108395500E0,-1.574743271E0,-2.534254491E-1,-7.338786721E-1
1.118389500E0,-1.382385731E0,-7.515531778E-2,-5.609388947E-1
1.128383500E0,-1.170493364E0,1.037857160E-1,-3.774313033E-1
1.138376500E0,-9.906429648E-1,3.079204857E-1,-2.037010640E-1
1.148370500E0,-9.472350478E-1,6.060574055E-1,-1.250618100E-1
1.158364500E0,-9.603865147E-1,8.422006965E-1,-1.162981465E-1
1.168358500E0,-7.921001315E-1,1.137777567E0,-6.900164485E-2
1.178352500E0,-4.637406170E-1,1.159137726E0,6.967554241E-2
1.188345500E0,4.500025883E-2,6.715362668E-1,1.498064548E-1
1.198339500E0,6.067344546E-1,-1.117198989E-1,1.211223602E-1
1.208333500E0,1.036463022E0,-1.004810214E0,1.766682565E-1
1.218327500E0,1.105410933E0,-2.039975643E0,2.754504979E-1
1.228320500E0,9.368571639E-1,-2.736428976E0,4.373933971E-1
1.238314500E0,6.092742085E-1,-2.768656254E0,6.189621091E-1
1.248308500E0,3.711035103E-2,-2.566033363E0,7.463233471E-1
1.258302500E0,-4.977160394E-1,-2.404908419E0,8.689001799E-1
1.268296500E0,-8.661673665E-1,-2.412098646E0,9.811834097E-1
1.278289500E0,-9.368112087E-1,-2.718944788E0,1.113703609E0
1.288283500E0,-7.147901654E-1,-3.398483515E0,1.431684136E0
1.298277500E0,-3.389877379E-1,-4.054867268E0,1.840144634E0
1.308271500E0,-1.165286452E-1,-4.416390896E0,2.436248779E0
1.318265500E0,-1.398558021E-1,-4.800637245E0,3.244433880E0
1.328258500E0,-2.990151048E-1,-4.745638847E0,4.095506191E0
1.338252500E0,-7.027926445E-1,-3.719076395E0,4.757824421E0
1.348246500E0,-1.237746954E0,-2.303933859E0,4.987431049E0
1.358240500E0,-1.762458920E0,-1.267088771E0,4.820600986E0
1.368234500E0,-2.260919094E0,-2.130625099E-1,4.270659924E0
1.378227500E0,-2.769777298E0,1.021598101E0,3.584194660E0
1.388221500E0,-3.154526472E0,1.759040475E0,3.253353357E0
1.398215500E0,-3.446954727E0,2.308912039E0,3.149820328E0
1.408209500E0,-3.683201075E0,3.062008619E0,2.948514700E0
1.418203500E0,-3.887853146E0,3.819082499E0,2.604148388E0
1.428196500E0,-4.092903614E0,4.354454994E0,2.027777433E0
1.438190500E0,-3.908466339E0,4.249564648E0,1.499923348E0
1.448184500E0,-3.407500267E0,3.637622595E0,1.183764815E0
1.458178500E0,-2.456450224E0,3.416620493E0,2.321270406E-1
1.468172500E0,-1.449208856E0,2.573336124E0,-6.575496793E-1
1.478165500E0,-7.262437940E-1,1.717127323E0,-1.198282957E0
1.488159500E0,-3.535951674E-1,1.163178682E0,-1.667306304E0
1.498153500E0,-2.434241921E-1,7.626722455E-1,-2.188418627E0
1.508147500E0,-1.010698229E-1,5.326362252E-1,-2.465204477E0
1.518140500E0,-1.167425290E-1,1.737983972E-1,-2.769888639E0
1.528134500E0,-4.470512271E-1,-7.943306118E-2,-3.200758934E0
1.538128500E0,-9.684782028E-1,-2.914851308E-1,-3.469378948E0
1.548122500E0,-1.425885439E0,-7.046295404E-1,-3.704380274E0
1.558116500E0,-1.741938233E0,-6.043213010E-1,-3.963251352E0
1.568109500E0,-1.426775932E0,1.201771125E-1,-4.030206680E0
1.578103500E0,-7.264056206E-1,9.499632120E-1,-3.952155113E0
1.588097500E0,-9.141688049E-2,1.204015136E0,-3.288223982E0
1.598091500E0,6.350385547E-1,1.318971276E0,-2.236215830E0
1.608085500E0,8.206879497E-1,1.507265449E0,-1.593848228E0
1.618078500E0,2.387894094E-1,8.364899755E-1,-1.636243582E0
1.628072500E0,-4.613494873E-1,-5.246223137E-2,-2.086673260E0
1.638065667E0,-7.186214924E-1,-5.602642298E-1,-2.446587324E0
1.648059667E0,-6.840052009E-1,-1.006780028E0,-2.396375656E0
1.658053667E0,-5.126683116E-1,-1.402183533E0,-2.115795612E0
1.668046667E0,-5.053454041E-1,-1.967014194E0,-1.874066710E0
1.678040667E0,-6.197585464E-1,-2.068301678E0,-1.862723231E0
1.688034667E0,-5.543921590E-1,-1.399575114E0,-2.414668083E0
1.698028667E0,-3.350222111E-1,-1.807466745E-1,-3.044735432E0
1.708022667E0,2.164609730E-1,1.356716633E0,-3.093215704E0
1.718015667E0,8.953058124E-1,1.843989134E0,-2.806585073E0
1.728009667E0,1.437589526E0,1.468460917E0,-2.124722242E0
1.738003667E0,1.686461210E0,8.738315701E-1,-1.720948339E0
1.747997667E0,1.377197385E0,-9.537615180E-1,-1.932017803E0
1.757990667E0,1.158109784E0,-2.458879709E0,-2.435531378E0
1.767984667E0,6.563767195E-1,-1.751815557E0,-1.831805468E0
1.777978667E0,2.051747218E-2,-8.265271783E-1,-1.604537606E0
1.787972667E0,-7.002479583E-2,-2.785233557E-1,-1.463674784E0
1.797966667E0,3.374388516E-1,2.693138085E-2,-1.602384448E0
1.807959667E0,8.529155850E-1,2.970243096E-1,-1.878332615E0
1.817953667E0,8.207845092E-1,2.607597709E-1,-1.872890711E0
1.827947667E0,5.247132182E-1,-1.180388629E-1,-1.308659911E0
1.837941667E0,4.695271552E-1,-7.797680497E-1,-8.068378568E-1
1.847935667E0,3.282725215E-1,-9.155502915E-1,-6.928692460E-1
1.857928667E0,2.530877590E-1,-6.454844475E-1,-6.957768798E-1
1.867922667E0,3.439341784E-1,-4.211650193E-1,-7.153446078E-1
1.877916667E0,5.319954157E-1,-2.259672880E-1,-7.798128128E-1
1.887910667E0,7.476121783E-1,-1.736432463E-1,-8.540166020E-1
1.897904667E0,7.795959115E-1,-2.995868027E-1,-8.145307302E-1
1.907897667E0,7.020469904E-1,-3.181822300E-1,-6.644362211E-1
1.917891667E0,4.777457118E-1,-4.951314628E-1,-4.873285294E-1
1.927885667E0,2.050142735E-1,-6.578689814E-1,-4.065111279E-1
1.937879667E0,9.958611429E-2,-6.219198108E-1,-3.892945945E-1
1.947873667E0,1.060675755E-1,-5.969868302E-1,-3.536333144E-1
1.957866667E0,1.161353886E-1,-3.841153383E-1,-2.782368362E-1
1.967860667E0,2.103015631E-1,1.948733628E-2,-2.579668462E-1
1.977854667E0,2.903274000E-1,4.747920036E-1,-2.981395721E-1
1.987848667E0,3.187316358E-1,6.903213263E-1,-2.941494882E-1
1.997842667E0,4.049629271E-1,6.673491597E-1,-2.652347386E-1
2.007835667E0,4.887290299E-1,6.122934222E-1,-2.146918476E-1
2.017829667E0,5.805076957E-1,5.298781395E-1,-4.669752344E-2
2.027823667E0,6.951518655E-1,5.651795268E-1,6.742715836E-2
2.037817667E0,8.118888736E-1,7.213869691E-1,1.525585651E-1
2.047811667E0,9.842044115E-1,9.226467609E-1,2.899343669E-1
2.057804667E0,1.182236791E0,1.086701274E0,4.695810974E-1
2.067798667E0,1.259138107E0,1.101349592E0,7.198231220E-1
2.077792667E0,1.263690710E0,1.307186961E0,1.079914689E0
2.087786667E0,1.327201605E0,1.736608505E0,1.502547860E0
2.097780667E0,1.536961555E0,2.112504244E0,1.861544371E0
2.107773667E0,1.827541113E0,2.463601112E0,2.123701811E0
2.117767667E0,2.101706743E0,2.436883211E0,2.252767086E0
2.127761667E0,2.422338963E0,2.132583618E0,2.247205496E0
2.137755667E0,2.528934717E0,1.578944683E0,2.011825800E0
2.147749667E0,2.322899103E0,1.594167471E0,1.314891934E0
2.157742667E0,1.970209479E0,2.105160952E0,3.852559626E-1
2.167736667E0,1.640970111E0,2.447948933E0,-2.322367579E-1
2.177730667E0,1.383638501E0,2.719747782E0,-6.966561079E-1
2.187724667E0,9.723607302E-1,2.363937140E0,-9.431642890E-1
2.197717667E0,4.489342868E-1,1.554656029E0,-8.249356151E-1
2.207711667E0,2.156820595E-1,7.608770132E-1,-5.487376451E-1
2.217705667E0,3.513512313E-1,3.338904977E-1,-2.664289773E-1
2.227699667E0,6.388553381E-1,4.841458052E-2,-1.689497828E-1
2.237693667E0,9.079158306E-1,-1.291902959E-1,-1.392941624E-1
2.247686667E0,9.639920592E-1,5.039710086E-3,-1.706444323E-1
2.257680667E0,8.427940011E-1,2.974952757E-1,-1.483604312E-1
2.267674667E0,6.800616980E-1,4.865397215E-1,-1.469404995E-2
2.277668667E0,6.436576247E-1,5.632438660E-1,1.135398149E-1
2.287662667E0,7.696364522E-1,5.560103059E-1,1.408838034E-1
2.297655667E0,1.177243114E0,2.887290418E-1,2.378873080E-1
2.307649667E0,1.550796866E0,1.712939143E-1,3.153834939E-1
2.317643667E0,1.715190291E0,4.623188376E-1,2.492353618E-1
2.327637667E0,1.732401609E0,9.102236629E-1,2.928951681E-1
2.337631667E0,1.325014234E0,8.228850365E-1,2.153396606E-1
2.347624667E0,5.909177661E-1,1.683422923E-1,3.750082850E-2
2.357618667E0,3.111657500E-1,1.993915588E-1,-5.716149881E-2
2.367612667E0,4.507999122E-1,3.082393706E-1,-2.660368383E-1
2.377606667E0,3.485214710E-1,-4.508070648E-1,-6.593817472E-1
2.387600667E0,3.199861050E-1,-9.557965398E-1,-7.431760430E-1
2.397593667E0,3.691557944E-1,-4.992044866E-1,-4.513718784E-1
2.407587667E0,4.805043936E-1,5.129744112E-2,-4.072067142E-1
2.417581667E0,4.804817438E-1,3.745367527E-1,-4.150183201E-1
2.427575667E0,3.491477072E-1,1.651083678E-1,-3.363443613E-1
2.437569667E0,-1.097957417E-2,-1.415320039E-1,-1.815284044E-1
2.447562667E0,-3.662936091E-1,-2.517025471E-1,1.960573532E-2
2.457556667E0,-3.831261098E-1,-2.058719546E-1,2.175137550E-1
2.467550667E0,-1.278752238E-1,-9.177599102E-2,3.759557605E-1
2.477544667E0,2.124445289E-1,2.861699834E-2,4.750221372E-1
2.487538667E0,4.054253399E-1,1.116753519E-1,4.904710948E-1
2.497531667E0,4.864576161E-1,1.527418196E-1,4.648115337E-1
2.507525667E0,5.360154510E-1,1.828072369E-1,4.235875309E-1
2.517519667E0,6.355452538E-1,2.861866057E-1,3.668829501E-1
2.527513667E0,6.201873422E-1,3.562692106E-1,3.150321543E-1
2.537507667E0,1.528110802E-1,-2.556868270E-2,3.270270526E-1
2.547500667E0,-4.967147708E-1,-8.474934101E-1,2.812738121E-1
2.557494667E0,-8.529711366E-1,-1.246160150E0,2.277101874E-1
2.567488667E0,-7.912935019E-1,-8.615664840E-1,1.638982743E-1
2.577482667E0,-4.552832842E-1,-4.317732751E-1,1.276252270E-1
2.587476667E0,4.281653464E-2,4.206085578E-2,8.546418697E-2
2.597469667E0,5.178936124E-1,5.248858333E-1,2.679847926E-2
2.607463667E0,7.015396953E-1,6.184979081E-1,-9.594205767E-2
2.617457667E0,6.772794127E-1,2.119357437E-1,-3.144914508E-1
2.627451667E0,5.636522174E-1,-1.424000412E-1,-4.498697817E-1
2.637445875E0,4.468728602E-1,-2.719321847E-1,-5.705565214E-1
2.647438875E0,3.396336436E-1,-3.290740252E-1,-6.846570373E-1
2.657432875E0,1.500663608E-1,-3.624945581E-1,-7.183673382E-1
2.667426875E0,-7.901465520E-3,-5.195316672E-1,-6.981405616E-1
2.677420875E0,-8.140284568E-2,-1.013803720E0,-6.742754579E-1
2.687414875E0,4.387607276E-1,-1.890497684E0,-9.664020538E-1
2.697407875E0,1.277111053E0,-2.289786339E0,-9.065394998E-1
2.707401875E0,3.719988465E-1,-2.063067913E0,-9.216753244E-1
2.717395875E0,-5.798154473E-1,-2.551584005E0,-3.944882154E-1
2.727389875E0,-1.245485425E0,-3.279609919E0,-2.160219401E-1
2.737383875E0,-9.394507408E-1,-2.766699553E0,-4.396595657E-1
2.747376875E0,-5.700007081E-1,-1.693587184E0,-5.492435694E-1
2.757370875E0,-5.200163722E-1,-1.948827505E0,-5.289667845E-1
2.767364875E0,-4.839084148E-1,-2.803202152E0,-5.294243097E-1
2.777358875E0,-4.713497460E-1,-3.565082788E0,-4.333582520E-1
2.787352875E0,-4.951751232E-1,-4.319529057E0,-3.495759964E-1
2.797345875E0,-6.356606483E-1,-5.091952324E0,-3.203389943E-1
2.807339875E0,-8.268526196E-1,-5.124120235E0,-4.807605743E-1
2.817333875E0,-1.023309469E0,-4.435960770E0,-4.824029505E-1
2.827327875E0,-9.682787061E-1,-3.354881763E0,-4.523819387E-1
2.837321875E0,-9.016746879E-1,-2.365711689E0,-4.139136374E-1
2.847314875E0,-8.298214078E-1,-1.708269358E0,-2.871736586E-1
2.857308875E0,-8.053438067E-1,-9.001290798E-1,-2.003199905E-1
2.867302875E0,-7.422000766E-1,-6.453493983E-2,-1.803170592E-1
2.877296875E0,-4.600668550E-1,4.837087095E-1,-1.643849611E-1
2.887290875E0,-6.926346570E-2,6.137539148E-1,-1.326883584E-1
2.897283875E0,3.747645915E-1,6.508517265E-1,-1.807703972E-1
2.907277875E0,7.401699424E-1,6.984719038E-1,-2.028365880E-1
2.917271875E0,9.304733276E-1,7.126141191E-1,-2.213652730E-1
2.927265875E0,8.397129178E-1,8.346399069E-1,-1.638638228E-1
2.937259875E0,6.714647412E-1,9.294021130E-1,-1.203906536E-1
2.947252875E0,3.856276572E-1,1.172692537E0,-5.923409387E-2
2.957246875E0,2.808229439E-2,1.620552778E0,2.542699873E-2
2.967240875E0,-2.397107482E-1,2.174931049E0,1.148531362E-1
2.977234875E0,-2.779233754E-1,2.627942562E0,1.898554713E-1
2.987228875E0,-2.679156959E-1,3.245367765E0,2.114150971E-1
2.997221875E0,2.885044217E-1,3.367415905E0,1.228250563E-1
3.007215875E0,9.639920592E-1,2.590941191E0,2.146439999E-2
3.017209875E0,9.961798191E-1,2.121389627E0,7.112360094E-3
3.027203875E0,6.253625751E-1,1.830531240E0,-2.134725079E-2
3.037197875E0,2.567150593E-1,1.380235076E0,-9.296604246E-2
3.047190875E0,-5.769770220E-2,8.227802515E-1,-1.664368957E-1
3.057184875E0,-4.112994373E-1,4.017036259E-1,-2.518178225E-1
3.067178875E0,-6.942504048E-1,1.600481868E-1,-3.510608375E-1
3.077172875E0,-9.694803953E-1,-1.034268737E-1,-4.005831182E-1
3.087166875E0,-1.318582416E0,-3.364090621E-1,-4.032619894E-1
3.097159875E0,-1.513812900E0,-3.072706163E-1,-5.266464949E-1
3.107153875E0,-1.567191720E0,-3.386270255E-2,-6.672539711E-1
3.117147875E0,-1.470286131E0,1.915621608E-1,-7.762403488E-1
3.127141875E0,-1.135733128E0,1.512648910E-1,-8.537588716E-1
3.137135875E0,-7.784487009E-1,-3.253245652E-1,-8.552968502E-1
3.147128875E0,-7.185841799E-1,-9.346200228E-1,-7.078706026E-1
3.157122875E0,-8.201683760E-1,-1.377405405E0,-6.024932861E-1
3.167116875E0,-8.232539892E-1,-1.523842454E0,-5.317689180E-1
3.177110875E0,-7.670128345E-1,-1.239678144E0,-4.881836176E-1
3.187104875E0,-8.611540198E-1,-1.140159845E0,-6.892007589E-1
3.197097875E0,-7.863770127E-1,-7.963979244E-1,-8.758845925E-1
3.207091875E0,-7.275961041E-1,-1.789972782E-1,-1.076329470E0
3.217085875E0,-8.238946199E-1,-3.076785803E-2,-1.067625761E0
3.227079875E0,-7.792387605E-1,6.850330234E-1,-1.149333715E0
3.237073875E0,-8.015094399E-1,7.523289323E-1,-1.096255064E0
3.247067875E0,-8.830658793E-1,5.670301318E-1,-1.024441004E0
3.257060875E0,-9.446355104E-1,3.562481105E-1,-8.252267241E-1
3.267054875E0,-8.841716647E-1,2.830882967E-1,-6.540769935E-1
3.277048875E0,-5.957771540E-1,3.545145392E-1,-5.115289092E-1
3.287042875E0,-3.075486124E-1,4.011904597E-1,-4.253826737E-1
3.297036875E0,-1.105932072E-1,4.788817763E-1,-2.634781897E-1
3.307029875E0,2.229004540E-2,4.742088020E-1,-9.786183387E-2
3.317023875E0,1.164490357E-1,4.373282790E-1,9.697556496E-2
3.327017875E0,1.094853655E-1,3.217262924E-1,2.869007289E-1
