"Time (s)","X (rad/s)","Y (rad/s)","Z (rad/s)"
1.951138750E-1,-2.527955472E-1,4.615737200E-1,7.751527429E-1
2.050928750E-1,-5.633176863E-2,4.814254642E-1,7.538482547E-1
2.151028750E-1,1.401200444E-1,4.176788628E-1,7.104975581E-1
2.251118750E-1,3.266561031E-1,5.558199883E-1,6.466701031E-1
2.351218750E-1,5.105121136E-1,6.666579843E-1,5.959151983E-1
2.451008750E-1,6.975054145E-1,6.763191223E-1,5.398295522E-1
2.551108750E-1,8.463546038E-1,6.349163651E-1,4.936144054E-1
2.651208750E-1,9.625288844E-1,6.021655798E-1,4.409807324E-1
2.751308750E-1,1.053152680E0,5.999652743E-1,3.751883507E-1
2.851098750E-1,1.144823790E0,6.820465326E-1,3.224220872E-1
2.951198750E-1,1.299670696E0,7.183761001E-1,2.947433889E-1
3.051288750E-1,1.508305192E0,7.275522947E-1,2.722953260E-1
3.151388750E-1,1.760234475E0,7.823705077E-1,2.701662779E-1
3.251178750E-1,2.049863338E0,8.132770061E-1,2.769040763E-1
3.351278750E-1,2.342011213E0,7.578290701E-1,2.749532163E-1
3.451378750E-1,2.596383333E0,6.604548693E-1,2.294832021E-1
3.551478750E-1,2.776931047E0,5.341123343E-1,1.630671173E-1
3.651268750E-1,2.886665106E0,3.827023208E-1,8.177624643E-2
3.751368750E-1,2.918703794E0,2.486899197E-1,2.325593866E-2
3.851468750E-1,2.884798527E0,1.547452956E-1,4.365338013E-3
3.951558750E-1,2.794414520E0,2.117540501E-2,1.494086906E-2
4.051358750E-1,2.632716894E0,-2.169420868E-1,2.551335283E-2
4.151448750E-1,2.374900341E0,-4.131876230E-1,2.925178967E-2
4.251548750E-1,2.012792587E0,-5.576646328E-1,1.941993274E-2
4.351648750E-1,1.579986572E0,-6.836655736E-1,2.003831230E-2
4.451438750E-1,1.090058208E0,-8.554160595E-1,3.125021979E-2
4.551538750E-1,5.471240282E-1,-1.000673532E0,4.776336998E-2
4.651638750E-1,1.213730685E-2,-1.017664433E0,8.129070699E-2
4.751728750E-1,-4.833334386E-1,-9.152979255E-1,1.215479970E-1
4.851528750E-1,-8.237298727E-1,-7.685468197E-1,1.051708907E-1
4.951618750E-1,-9.939730167E-1,-6.879807115E-1,5.965188146E-2
5.051718750E-1,-5.263407826E-1,-1.123325467E0,-4.249605909E-2
5.151818750E-1,7.047290206E-1,-1.433360219E0,-4.201115295E-2
5.251918750E-1,1.400505662E0,-7.314262986E-1,1.713818684E-2
5.351708750E-1,1.291652083E0,1.445712447E-1,5.030206963E-2
5.451808750E-1,9.307788610E-1,1.303451955E-1,-3.277630359E-2
5.551908750E-1,5.154550672E-1,-2.239998579E-1,-1.821515858E-1
5.651998750E-1,7.429042459E-2,-4.494412243E-1,-2.851871550E-1
5.751798750E-1,-3.957418799E-1,-3.790227175E-1,-3.713921309E-1
5.851888750E-1,-8.221153021E-1,-3.591654003E-1,-4.264290035E-1
5.951988750E-1,-9.703118205E-1,-4.119719863E-1,-4.155888259E-1
6.052088750E-1,-6.874744892E-1,-4.112689197E-1,-2.687261403E-1
6.151878750E-1,-2.493427098E-1,-2.225994170E-1,-1.016937494E-1
6.251978750E-1,1.212422848E-1,-2.303143591E-2,-5.722534284E-2
6.352078750E-1,3.459612429E-1,3.555527702E-2,-9.109632671E-2
6.452168750E-1,4.105258286E-1,8.604158647E-4,-1.491028965E-1
6.551968750E-1,3.473470509E-1,-1.261333227E-1,-1.369492114E-1
6.652058750E-1,2.191568613E-1,-1.977899373E-1,-2.340110391E-1
6.752158750E-1,9.659794718E-2,-2.487658858E-1,-2.783019245E-1
6.852258750E-1,-7.250687107E-3,-3.052893281E-1,-2.297439724E-1
6.952048750E-1,-2.589915693E-2,-2.635499239E-1,-1.841740757E-1
7.052148750E-1,7.736302912E-3,-2.059335113E-1,-1.407741308E-1
7.152248750E-1,1.446124911E-1,-2.154892385E-1,-1.017036438E-1
7.252338750E-1,2.979005575E-1,-2.645566761E-1,-4.300837591E-2
7.352138750E-1,4.607829750E-1,-2.690182626E-1,4.655080289E-2
7.452228750E-1,5.777085423E-1,-2.461515516E-1,1.188276634E-1
7.552328750E-1,6.786408424E-1,-1.965182722E-1,1.485043764E-1
7.652428750E-1,7.410528064E-1,-2.004586905E-1,1.346364915E-1
7.752218750E-1,7.484858036E-1,-1.749701649E-1,7.297000289E-2
7.852318750E-1,7.504256368E-1,-1.342395097E-1,1.787585765E-2
7.952418750E-1,7.963268757E-1,-1.184194013E-1,4.074971192E-3
8.052518750E-1,8.850090504E-1,-1.263156682E-1,9.183446877E-3
8.152308750E-1,9.905920625E-1,-1.269687563E-1,3.781549633E-3
8.252408750E-1,1.091329336E0,-1.492399722E-1,2.418029867E-2
8.352498750E-1,1.185757637E0,-1.456543356E-1,8.792284131E-2
8.452598750E-1,1.293159246E0,-7.362461090E-2,1.583496034E-1
8.552388750E-1,1.408056021E0,-5.327813327E-2,2.202362120E-1
8.652488750E-1,1.503681421E0,-3.632098809E-2,2.348068953E-1
8.752588750E-1,1.593576550E0,-3.205529973E-2,2.679867148E-1
8.852688750E-1,1.627256989E0,-8.868768066E-2,3.016656041E-1
8.952478750E-1,1.606114507E0,-1.338767856E-1,3.702235222E-1
9.052578750E-1,1.578875184E0,-1.739589572E-1,5.644199252E-1
9.152668750E-1,1.549113274E0,-2.678685784E-1,7.615735531E-1
9.252768750E-1,1.533302426E0,-2.272321880E-1,9.506646991E-1
9.352558750E-1,1.504204512E0,-1.799277514E-1,1.135884285E0
9.452378750E-1,1.469786644E0,-1.217776313E-1,1.306271672E0
9.552478750E-1,1.453046203E0,-7.277150452E-2,1.446418524E0
9.652578750E-1,1.423920274E0,-1.739822775E-1,1.532109499E0
9.752368750E-1,1.373250842E0,-2.652520239E-1,1.553325891E0
9.852468750E-1,1.311987400E0,-1.896797866E-1,1.453194261E0
9.952558750E-1,1.307003975E0,-7.707319409E-2,1.279272556E0
1.005265875E0,1.314213753E0,2.781034634E-2,9.889295101E-1
1.015275875E0,1.288838983E0,1.665067971E-1,6.961387396E-1
1.025254875E0,1.162054420E0,1.501299590E-1,4.518048763E-1
1.035264875E0,9.597079754E-1,4.796615615E-2,3.172485232E-1
1.045274875E0,6.852354407E-1,1.970868371E-2,2.539302707E-1
1.055284875E0,3.844984472E-1,4.778173938E-2,1.889033467E-1
1.065263875E0,8.545073867E-2,3.280838206E-2,2.503520846E-1
1.075273875E0,-4.452309757E-2,7.088675350E-2,4.375983179E-1
1.085282875E0,6.479896605E-3,1.746208668E-1,7.233480215E-1
1.095292875E0,8.105207980E-2,3.286474645E-1,9.935805798E-1
1.105271875E0,8.304360509E-2,4.892155528E-1,1.268781424E0
1.115281875E0,-5.621725693E-3,4.658293724E-1,1.454173923E0
1.125291875E0,-2.789797783E-1,5.581105947E-1,1.496407986E0
1.135301875E0,-5.960729122E-1,3.432959318E-1,1.463983655E0
1.145280875E0,-7.959921956E-1,1.911972165E-1,1.290198565E0
1.155290875E0,-7.874460816E-1,1.959698796E-1,1.104718924E0
1.165299875E0,-5.763143897E-1,2.248664945E-1,1.078223109E0
1.175309875E0,-2.489441186E-1,3.428066373E-1,1.220838785E0
1.185288875E0,-7.347454876E-2,6.711462140E-1,1.410824418E0
1.195298875E0,-7.711569965E-2,5.400992036E-1,1.565839410E0
1.205308875E0,-3.840444684E-1,7.201275826E-1,1.529959917E0
1.215318875E0,-8.161683679E-1,8.938221335E-1,1.617422223E0
1.225297875E0,-1.126001000E0,9.475748539E-1,1.821676850E0
1.235307875E0,-1.191197872E0,1.094270229E0,1.991216063E0
1.245317875E0,-1.053283930E0,1.209809661E0,2.050682545E0
1.255326875E0,-8.325677514E-1,1.207778811E0,1.934096456E0
1.265306875E0,-6.821020842E-1,1.025190353E0,1.569129109E0
1.275315875E0,-7.083493471E-1,7.684513927E-1,1.014704943E0
1.285325875E0,-8.302371502E-1,5.447906256E-1,5.087969899E-1
1.295335875E0,-8.942767382E-1,4.527930021E-1,2.598356903E-1
1.305314875E0,-8.302628398E-1,5.028817058E-1,3.533624411E-1
1.315324875E0,-6.269627213E-1,7.622743845E-1,6.990018487E-1
1.325334875E0,-3.630464375E-1,1.101659060E0,1.039464355E0
1.335343875E0,-1.904429197E-1,1.271377683E0,1.180095077E0
1.345323875E0,-6.724907458E-2,1.340497375E0,1.132795215E0
1.355332875E0,6.029768847E-3,1.232197762E0,9.036095142E-1
1.365342875E0,2.840804495E-2,1.169416070E0,6.398207545E-1
1.375352875E0,4.214225337E-3,1.036547303E0,4.472008049E-1
1.385331875E0,-3.419521451E-2,9.722581506E-1,3.593348861E-1
1.395341875E0,-7.338050008E-2,8.677827716E-1,3.557699323E-1
1.405351875E0,-8.878581971E-2,9.107989669E-1,3.947120011E-1
1.415360875E0,-4.038675129E-2,9.687276483E-1,4.366416931E-1
1.425340875E0,3.246801719E-2,9.782961607E-1,3.970764279E-1
1.435349875E0,1.168897375E-1,1.023586273E0,3.758306801E-1
1.445359875E0,2.783582509E-1,1.123872995E0,4.770582318E-1
1.455369875E0,5.330160856E-1,1.203674436E0,6.574044228E-1
1.465379875E0,8.120138645E-1,1.385870099E0,8.973424435E-1
1.475358875E0,1.080210447E0,1.488699555E0,1.088404179E0
1.485368875E0,1.255461931E0,1.427495122E0,1.147649646E0
1.495378875E0,1.270655632E0,1.237335324E0,1.004687667E0
1.505387875E0,1.110386968E0,9.478073120E-1,6.720924973E-1
1.515367875E0,8.090564013E-1,5.396021605E-1,2.766008973E-1
1.525376875E0,5.042294264E-1,2.163271308E-1,4.973232374E-2
1.535386875E0,3.016538024E-1,5.514921620E-2,9.775196016E-2
1.545396875E0,3.002811968E-1,1.247850209E-1,3.901691735E-1
1.555375875E0,5.028488040E-1,4.589603245E-1,7.960705161E-1
1.565385875E0,7.838961482E-1,7.849491239E-1,1.213823080E0
1.575395875E0,1.043461561E0,1.126109362E0,1.509306192E0
1.585404875E0,1.105443716E0,1.271177888E0,1.561543822E0
1.595384875E0,9.570883512E-1,1.239691973E0,1.378290176E0
1.605393875E0,6.763254404E-1,1.198295593E0,1.006426334E0
1.615403875E0,3.916999400E-1,1.032472968E0,6.609850526E-1
1.625413875E0,2.148362249E-1,6.832257509E-1,4.356229901E-1
1.635392875E0,2.396607548E-1,4.252910614E-1,2.756516635E-1
1.645402875E0,4.452527761E-1,2.588245869E-1,2.037497610E-1
1.655412875E0,7.817027569E-1,1.404940635E-1,2.309996933E-1
1.665422875E0,1.095368505E0,1.405739635E-1,2.503808439E-1
1.675401875E0,1.258053303E0,1.461669952E-1,2.233954370E-1
1.685411875E0,1.261977553E0,7.390370965E-2,2.087920010E-1
1.695420875E0,1.207769156E0,-3.993381932E-2,2.535328269E-1
1.705430875E0,1.190438867E0,-1.345373876E-2,3.587346077E-1
1.715409875E0,1.225762963E0,1.002827659E-1,4.730280936E-1
1.725419875E0,1.251819253E0,1.319900900E-1,5.542080998E-1
1.735429875E0,1.251866579E0,1.266572028E-1,5.654299855E-1
1.745439875E0,1.256906033E0,8.611883223E-2,5.353131294E-1
1.755418875E0,1.309533715E0,5.918201804E-2,4.714266062E-1
1.765428875E0,1.343944669E0,-6.956184655E-2,4.141537249E-1
1.775437875E0,1.348034859E0,-1.645913124E-1,3.900387287E-1
1.785447875E0,1.381179810E0,-2.398429364E-1,3.869593143E-1
1.795426875E0,1.464165449E0,-2.752137184E-1,3.885731995E-1
1.805436875E0,1.577885389E0,-3.156610131E-1,3.568757176E-1
1.815446875E0,1.679669142E0,-3.493930697E-1,3.291723728E-1
1.825456875E0,1.753886342E0,-3.357150555E-1,3.356057703E-1
1.835435875E0,1.741634250E0,-1.104830652E-1,4.539813101E-1
1.845445875E0,1.550308228E0,-2.482036129E-2,6.408622861E-1
1.855454875E0,1.270987511E0,3.800417483E-2,7.088083625E-1
1.865464875E0,9.498766065E-1,1.717124283E-1,7.907082438E-1
1.875443875E0,6.977564692E-1,3.214259744E-1,9.957967997E-1
1.885453875E0,4.586985707E-1,3.305914998E-1,1.056465983E0
1.895463875E0,3.823897243E-1,1.685673892E-1,9.340057373E-1
1.905473875E0,4.540066719E-1,4.394022748E-2,7.316712737E-1
1.915483875E0,5.653104782E-1,-2.729179859E-1,4.907101989E-1
1.925462875E0,5.478406549E-1,-6.599045992E-1,2.214912474E-1
1.935472875E0,3.974386454E-1,-8.078820705E-1,-5.481531098E-2
1.945472375E0,3.064618409E-1,-7.634184361E-1,-1.946917176E-1
1.955482375E0,4.376029372E-1,-7.303400040E-1,-2.137495577E-1
1.965461375E0,7.779589295E-1,-5.731751323E-1,-5.212336779E-2
1.975471375E0,1.111847401E0,-5.027745962E-1,-2.455474995E-2
1.985481375E0,1.296767473E0,-8.960702419E-1,-3.236647546E-1
1.995491375E0,1.319663525E0,-9.720510840E-1,-3.008168340E-1
2.005470375E0,1.432360053E0,-1.023197889E0,-2.232789248E-1
2.015480375E0,1.222961426E0,-6.933570504E-1,9.053642303E-2
2.025489375E0,4.683637321E-1,-1.634263694E-1,4.430127144E-1
2.035499375E0,-3.250751197E-1,3.999645263E-2,7.608906627E-1
2.045478375E0,-4.539393485E-1,9.634999931E-2,9.303721189E-1
2.055488375E0,-3.356038034E-1,1.556890011E-1,8.460794091E-1
2.065498375E0,-7.357752323E-2,-2.273659855E-1,6.355674267E-1
2.075508375E0,2.417573631E-1,-6.420032978E-1,4.478252530E-1
2.085487375E0,5.492078662E-1,-6.476194263E-1,4.165112674E-1
2.095497375E0,8.091130257E-1,-5.973418355E-1,3.033533394E-1
2.105507375E0,8.689625263E-1,-3.088996708E-1,-2.756285071E-1
2.115516375E0,1.143155217E0,-1.156522870E0,-8.508315682E-1
2.125496375E0,1.059930682E0,-5.371401310E-1,-6.283793449E-1
2.135505375E0,7.159794569E-1,-8.648411632E-1,-1.830814928E-1
2.145515375E0,6.186904907E-1,-7.864768505E-1,-1.197003722E-1
2.155525375E0,7.764258385E-1,-7.323167324E-1,-3.762630224E-1
2.165504375E0,7.443978786E-1,-5.588535666E-1,-4.558406770E-1
2.175514375E0,5.282229185E-1,-8.682656884E-1,-4.158761203E-1
2.185524375E0,2.293480635E-1,-1.026551723E0,-4.273498058E-1
2.195533375E0,-4.431475699E-2,-1.052097797E0,-4.994847476E-1
2.205513375E0,-2.954385877E-1,-1.155064464E0,-5.375272632E-1
2.215522375E0,-3.400049508E-1,-1.126130939E0,-5.759620667E-1
2.225532375E0,-2.748411298E-1,-7.951786518E-1,-7.041370869E-1
2.235542375E0,-2.953989208E-1,-4.530906677E-1,-8.062082529E-1
2.245521375E0,-4.620493948E-1,-4.014091194E-2,-7.774801850E-1
2.255531375E0,-6.917161942E-1,5.718907714E-1,-5.889484286E-1
2.265541375E0,-9.183062315E-1,7.976503968E-1,-3.220534027E-1
2.275550375E0,-9.875182509E-1,6.969464421E-1,-2.769571841E-1
2.285530375E0,-9.029730558E-1,6.084266901E-1,-1.357680857E-1
2.295539375E0,-7.625535131E-1,6.754312515E-1,8.759716898E-2
2.305549375E0,-6.863721609E-1,6.764174104E-1,3.908313513E-1
2.315559375E0,-6.496396661E-1,5.426129103E-1,3.769894242E-1
2.325538375E0,-5.647175908E-1,4.329689443E-1,1.358601749E-1
2.335548375E0,-6.294661164E-1,3.072999120E-1,-1.657781452E-1
2.345558375E0,-6.992017627E-1,3.777253330E-1,-4.370192587E-1
2.355568375E0,-7.066987157E-1,4.868382215E-1,-5.573240519E-1
2.365577375E0,-6.240369081E-1,4.826016724E-1,-5.155541897E-1
2.375557375E0,-4.562397301E-1,5.399503112E-1,-4.303480387E-1
2.385566375E0,-2.909706235E-1,6.392116547E-1,-4.214426875E-1
2.395576375E0,-2.195846736E-1,4.761260152E-1,-3.945310116E-1
2.405586375E0,-2.088758349E-1,2.258264273E-1,-3.350415826E-1
2.415565375E0,-2.488255948E-1,-5.171722174E-2,-2.381281853E-1
2.425575375E0,-3.241275549E-1,-1.963532418E-1,-3.685431480E-1
2.435585375E0,-3.377560675E-1,-1.759725213E-1,-6.499792933E-1
2.445594375E0,-2.922450602E-1,-7.038484514E-2,-8.944942355E-1
2.455574375E0,-2.721272707E-1,5.112427473E-2,-1.047978282E0
2.465583375E0,-2.902825773E-1,1.497187614E-1,-1.144936204E0
2.475593375E0,-3.730697334E-1,1.647930592E-1,-1.250240564E0
2.485603375E0,-4.982747734E-1,1.287064254E-1,-1.160683155E0
2.495582375E0,-5.578095913E-1,4.304531217E-2,-9.465622306E-1
2.505592375E0,-5.764722228E-1,-1.032429263E-1,-7.611167431E-1
2.515602375E0,-5.279507637E-1,-3.200670183E-1,-6.489118934E-1
2.525611375E0,-4.227223396E-1,-4.624912739E-1,-5.181978345E-1
2.535591375E0,-4.047294259E-1,-5.641256571E-1,-4.502829015E-1
2.545601375E0,-4.128352702E-1,-6.101658940E-1,-4.028046131E-1
2.555610375E0,-4.024795890E-1,-6.004534364E-1,-3.845527470E-1
2.565620375E0,-3.898085356E-1,-5.367665887E-1,-3.476229608E-1
2.575599375E0,-3.668842912E-1,-5.058770180E-1,-3.205478191E-1
2.585609375E0,-3.258588314E-1,-5.014926791E-1,-2.722194195E-1
2.595619375E0,-3.065238595E-1,-4.994678497E-1,-2.690540552E-1
2.605629375E0,-2.888276577E-1,-5.118582249E-1,-2.285332531E-1
2.615608375E0,-2.408721596E-1,-5.100154281E-1,-1.401364207E-1
2.625618375E0,-1.915315241E-1,-5.070904493E-1,-1.028010175E-1
2.635627375E0,-1.591752917E-1,-5.082162023E-1,-7.260586321E-2
2.645637375E0,-1.568508893E-1,-4.186623394E-1,-1.262946576E-1
2.655616375E0,-2.246247232E-1,-1.344612986E-1,-2.192822248E-1
2.665626375E0,-2.420178354E-1,2.493995577E-1,-2.675552070E-1
2.675636375E0,-1.626228243E-1,5.045157671E-1,-3.322813511E-1
2.685646375E0,-1.993022859E-1,4.717966616E-1,-3.768466711E-1
2.695625375E0,-3.457673192E-1,6.190856546E-2,-3.585067987E-1
2.705635375E0,-5.432407260E-1,-9.591435641E-2,-2.680357397E-1
2.715644375E0,-6.489092708E-1,1.836822778E-1,3.098950386E-1
2.725654375E0,-6.596620679E-1,3.428413272E-1,3.242952824E-1
2.735633375E0,-7.427377105E-1,4.296379387E-1,3.334825337E-1
2.745643375E0,-8.333290815E-1,5.865343213E-1,4.558800757E-1
2.755653375E0,-8.749464750E-1,3.457252681E-1,2.356170416E-1
2.765663375E0,-9.517624378E-1,6.841776520E-2,-9.439361095E-2
2.775673375E0,-1.072509289E0,-9.442417324E-2,-2.960851490E-1
2.785652375E0,-1.139777541E0,-1.048078388E-1,-4.312754571E-1
2.795662375E0,-1.162233472E0,-2.654350363E-2,-5.636792779E-1
2.805671375E0,-1.099009514E0,3.881712630E-2,-6.099240184E-1
2.815681375E0,-9.496690035E-1,1.973665655E-1,-4.827977419E-1
2.825660375E0,-8.154826760E-1,3.755661249E-1,-3.879649639E-1
2.835670375E0,-7.588766217E-1,3.446837068E-1,-3.177254200E-1
2.845680375E0,-7.469933629E-1,3.382212818E-1,-2.667173743E-1
2.855690375E0,-7.541016340E-1,2.514601350E-1,-2.902442813E-1
2.865669375E0,-7.143464684E-1,2.301471531E-1,-3.138132393E-1
2.875679375E0,-5.898782015E-1,3.437680602E-1,-3.095791340E-1
2.885688375E0,-4.144338965E-1,4.017911553E-1,-3.101263940E-1
2.895698375E0,-3.037539423E-1,3.392098844E-1,-3.212140501E-1
2.905677375E0,-1.423916668E-1,1.388917267E-1,-2.486772686E-1
2.915687375E0,7.440581173E-2,1.208695844E-1,-2.581425309E-1
2.925697375E0,4.215347469E-1,1.380850524E-1,-3.138063252E-1
2.935707375E0,7.016475201E-1,7.916888595E-2,-3.064970970E-1
2.945679333E0,9.240377545E-1,-5.814263225E-2,-3.916040063E-1
2.955689333E0,7.637702823E-1,5.723962188E-2,-4.820907712E-1
2.965698333E0,5.031057000E-1,3.044893444E-1,-4.889422655E-1
2.975708333E0,2.857604325E-1,2.501084208E-1,-5.420195460E-1
2.985687333E0,8.351808786E-2,2.182927281E-1,-6.017640829E-1
2.995697333E0,-6.030230224E-2,1.839523464E-1,-7.330867052E-1
3.005707333E0,-7.238021120E-3,3.797168136E-1,-9.403080940E-1
3.015717333E0,1.954611242E-1,4.253810644E-1,-1.089655280E0
3.025696333E0,3.955960870E-1,4.855701029E-1,-1.197287917E0
3.035706333E0,4.989688694E-1,4.132828414E-1,-1.097836614E0
3.045716333E0,2.954216003E-1,4.895626903E-1,-1.318797946E0
3.055725333E0,-3.034701757E-2,3.017137945E-1,-1.382042289E0
3.065705333E0,-2.764097750E-1,1.594888605E-2,-1.217865348E0
3.075714333E0,-3.475475609E-1,-3.977805376E-3,-1.044853926E0
3.085724333E0,-2.494774461E-1,1.132545471E-1,-1.005631685E0
3.095734333E0,-1.086746305E-1,1.520363241E-1,-9.740082622E-1
3.105713333E0,9.253875352E-3,2.098442316E-1,-1.009995580E0
3.115723333E0,7.932776958E-2,2.334981561E-1,-9.320446253E-1
3.125733333E0,5.048733205E-2,6.224385649E-2,-6.058979630E-1
3.135742333E0,1.674649566E-1,-5.357168987E-2,2.395142103E-3
3.145722333E0,3.590951264E-1,4.309013858E-2,1.655278802E-1
3.155731333E0,4.996121228E-1,1.948129237E-1,4.095539451E-2
3.165741333E0,4.961420298E-1,1.915545464E-1,-4.442439822E-4
3.175751333E0,4.614480436E-1,2.546204031E-1,-3.429153189E-2
3.185730333E0,3.568963110E-1,3.700964153E-1,-3.588748164E-3
3.195740333E0,3.294014633E-1,2.954751551E-1,5.191333219E-2
3.205750333E0,3.387909532E-1,4.172726870E-1,-9.873765521E-5
3.215760333E0,4.109715223E-1,4.734298885E-1,-9.574102610E-2
3.225769333E0,4.163612425E-1,5.496689677E-1,-2.062614262E-1
3.235749333E0,4.082612395E-1,5.179881454E-1,-2.443728596E-1
3.245758333E0,3.780042827E-1,4.284534454E-1,-2.328677326E-1
3.255768333E0,3.864267766E-1,3.177540004E-1,-2.397543937E-1
3.265778333E0,3.950966895E-1,3.577402830E-1,-2.140564919E-1
3.275757333E0,4.190420806E-1,3.160652816E-1,-1.754035950E-1
3.285767333E0,4.050889909E-1,2.810476720E-1,-6.946837902E-2
3.295777333E0,3.810343444E-1,3.300698996E-1,1.552963443E-2
3.305786333E0,3.046199977E-1,5.468762517E-1,-9.035871178E-2
3.315766333E0,6.350667030E-2,6.908664703E-1,-4.496389925E-1
3.325775333E0,-1.929221898E-1,7.358341813E-1,-7.292717099E-1
3.335785333E0,-2.496079504E-1,7.143079638E-1,-6.220542192E-1
3.345795333E0,-1.808775961E-1,3.140641153E-1,-4.145673513E-1
3.355774333E0,-1.464980841E-1,-2.020581961E-1,-1.937055439E-1
3.365784333E0,-2.168071270E-1,-2.139761001E-1,1.057317555E-1
3.375794333E0,-3.386720419E-1,-7.925098762E-3,2.801046371E-1
3.385803333E0,-4.594381452E-1,6.007312238E-2,3.260452151E-1
3.395783333E0,-5.157597661E-1,5.631234124E-2,2.513782084E-1
3.405792333E0,-5.069063306E-1,8.339908719E-2,1.037583873E-1
3.415802333E0,-4.733782411E-1,1.939412206E-1,-1.757512055E-2
3.425812333E0,-4.198612273E-1,2.120983899E-1,-3.777839616E-2
3.435791333E0,-3.464993238E-1,1.419147402E-1,1.684344560E-2
3.445801333E0,-2.783812582E-1,7.373567671E-2,1.131073013E-2
3.455811333E0,-2.297915220E-1,-7.443845272E-3,-3.828525916E-2
3.465821333E0,-2.147286832E-1,-4.007635638E-2,-9.210001677E-2
3.475800333E0,-1.884807646E-1,-6.579868495E-2,-5.263740569E-2
3.485810333E0,-9.283094108E-2,1.295128837E-3,2.885505371E-2
3.495819333E0,7.699989527E-2,3.773504868E-2,9.693875164E-2
3.505829333E0,2.470070571E-1,6.267139222E-3,1.782064438E-1
