"Time (s)","X (rad/s)","Y (rad/s)","Z (rad/s)"
8.501291624E-3,1.584556848E-1,-7.710050046E-2,-2.394284010E-1
1.856229163E-2,-3.936493397E-2,-2.043381929E-1,-2.042191178E-1
2.862229163E-2,-2.389643341E-1,-2.677645683E-1,-1.362842768E-1
3.868229163E-2,-3.869834244E-1,-2.471864372E-1,-3.638728708E-2
4.874329164E-2,-4.379102588E-1,-2.552060187E-1,7.380899787E-2
5.880329164E-2,-4.189579189E-1,-2.607531846E-1,1.839119494E-1
6.886329164E-2,-3.574338257E-1,-2.569824159E-1,2.494611293E-1
7.892429165E-2,-2.991065383E-1,-2.597634494E-1,2.571591139E-1
8.898429165E-2,-2.528778017E-1,-2.606391013E-1,2.215220183E-1
9.904429165E-2,-2.316633463E-1,-2.982522547E-1,1.720949411E-1
1.091052917E-1,-2.146417499E-1,-4.040167630E-1,1.211111173E-1
1.191652917E-1,-1.984419972E-1,-4.349606335E-1,1.125402153E-1
1.292262917E-1,-1.993304342E-1,-4.436990023E-1,1.097673327E-1
1.392862916E-1,-2.001222223E-1,-4.655313790E-1,1.414154172E-1
1.493462916E-1,-1.982928962E-1,-4.988456666E-1,1.989769936E-1
1.594072916E-1,-2.000583112E-1,-4.778457582E-1,2.730205655E-1
1.694672916E-1,-2.253713906E-1,-4.281445146E-1,3.601059318E-1
1.795272916E-1,-2.574589849E-1,-3.629221022E-1,4.484113455E-1
1.895882916E-1,-2.508953810E-1,-1.908336878E-1,5.446665287E-1
1.996482916E-1,-1.731462777E-1,1.994770914E-1,6.467142701E-1
2.097082916E-1,-4.998571798E-2,7.352214456E-1,7.259802818E-1
2.197692916E-1,1.027679294E-1,1.308434367E0,7.572056651E-1
2.298291667E-1,2.340559214E-1,1.674527884E0,7.386496067E-1
2.398891667E-1,2.101409733E-1,1.663856387E0,5.937025547E-1
2.499501666E-1,-6.781528145E-2,1.386840224E0,2.887583971E-1
2.600101666E-1,-4.152073562E-1,1.180742979E0,-1.265492886E-1
2.700701666E-1,-7.420150042E-1,9.918516874E-1,-5.808914900E-1
2.801311666E-1,-1.043032169E0,8.902567625E-1,-1.033940911E0
2.901911666E-1,-1.357406259E0,7.748668194E-1,-1.380105257E0
3.002511666E-1,-1.550396562E0,8.466859460E-1,-1.508394718E0
3.103121666E-1,-1.355779648E0,6.186034679E-1,-1.412862301E0
3.203721666E-1,-9.575790167E-1,5.775972009E-1,-1.289414763E0
3.304321666E-1,-5.278145671E-1,7.646397948E-1,-1.204643607E0
3.404931666E-1,-2.193390578E-1,7.215159535E-1,-1.161422491E0
3.505531666E-1,-1.408309340E-1,4.156679213E-1,-1.162916541E0
3.606131666E-1,-2.563162148E-1,-3.764856458E-1,-1.145527959E0
3.706741667E-1,5.576738343E-2,-8.668226004E-1,-1.071591616E0
3.807341667E-1,4.028360844E-1,-6.470689178E-1,-8.849911094E-1
3.907941667E-1,4.552079439E-1,-3.463866115E-1,-6.062558889E-1
4.008551667E-1,-4.799440503E-2,-4.509277642E-1,-1.339572072E-1
4.109151667E-1,-8.199095130E-1,-8.299371004E-1,4.335259199E-1
4.209761666E-1,-1.820005417E0,-3.564629257E-1,7.357753515E-1
4.310361666E-1,-1.334742546E0,-1.112749949E-1,7.846726179E-1
4.410961666E-1,-1.011996746E0,-2.275630683E-1,6.474033594E-1
4.511571666E-1,-5.712525845E-1,-1.174949884E0,4.986280203E-1
4.612171666E-1,-2.081713676E-1,-1.899332762E0,3.028735220E-1
4.712771666E-1,1.372099966E-1,-2.110062122E0,2.814960778E-1
4.813381666E-1,3.344990611E-1,-1.918997765E0,2.806126177E-1
4.913981666E-1,4.118015766E-1,-1.601736784E0,2.486168891E-1
5.014581666E-1,4.315343499E-1,-1.322237730E0,2.892984152E-1
5.115191666E-1,4.569454491E-1,-1.150144815E0,4.223398268E-1
5.215791666E-1,5.043307543E-1,-9.683843255E-1,5.744901299E-1
5.316391666E-1,5.767444968E-1,-6.973996758E-1,6.413466334E-1
5.417001667E-1,5.887279510E-1,-5.318589807E-1,5.887195468E-1
5.517601667E-1,5.477669239E-1,-2.903973162E-1,5.531812906E-1
5.618201667E-1,4.557685256E-1,7.590527087E-2,6.084743738E-1
5.718811667E-1,3.094001412E-1,4.484684467E-1,7.903171778E-1
5.819411667E-1,1.973894686E-1,6.513977647E-1,1.001149058E0
5.920011667E-1,1.780245602E-1,6.137292385E-1,1.074649096E0
6.020621667E-1,2.750531137E-1,2.924861014E-1,9.243861437E-1
6.121221666E-1,4.205756783E-1,-2.365215421E-1,6.187069416E-1
6.221821666E-1,5.296049714E-1,-6.638460159E-1,4.318885505E-1
6.322431666E-1,5.360708833E-1,-8.518004417E-1,6.099909544E-1
6.423031666E-1,4.782632291E-1,-8.213812709E-1,1.049668074E0
6.523631666E-1,4.150757194E-1,-7.346783280E-1,1.478573084E0
6.624241666E-1,4.164440632E-1,-7.543615103E-1,1.696377277E0
6.724841666E-1,4.805918932E-1,-9.060503840E-1,1.680863857E0
6.825451666E-1,5.653842688E-1,-9.949306846E-1,1.709879994E0
6.926051666E-1,6.214294434E-1,-1.016389132E0,2.008861542E0
7.026651666E-1,6.340956092E-1,-9.510883689E-1,2.452057600E0
7.127261666E-1,6.068384647E-1,-8.068348169E-1,2.872203350E0
7.227861666E-1,4.682733119E-1,-7.133607864E-1,3.059395313E0
7.328461666E-1,1.585311890E-1,-3.281515539E-1,2.114835024E0
7.429071667E-1,1.110425964E-1,1.234739572E-1,7.141286135E-1
7.529671667E-1,2.707704902E-1,-1.088788509E-1,3.657837212E-1
7.630271667E-1,4.567080438E-1,-4.270701110E-1,6.274980307E-1
7.730881667E-1,6.248973608E-1,-4.419167042E-1,8.381125331E-1
7.831481667E-1,6.050688028E-1,-4.771372974E-1,7.821448445E-1
7.932081667E-1,4.588843882E-1,-6.585496664E-1,5.837212205E-1
8.032691666E-1,2.750248909E-1,-8.808975816E-1,4.840504527E-1
8.133291666E-1,1.104314029E-1,-9.888986349E-1,5.024976134E-1
8.233891666E-1,-3.338762000E-2,-9.049175978E-1,5.590396523E-1
8.334501666E-1,-1.575774848E-1,-7.996537685E-1,6.671975255E-1
8.435101666E-1,-1.895678490E-1,-9.156634212E-1,7.998642921E-1
8.535701666E-1,-1.009788513E-1,-1.348325372E0,9.658617377E-1
8.636311666E-1,-9.443371557E-3,-1.976472020E0,1.010364532E0
8.736911666E-1,2.817004919E-2,-2.636787176E0,9.637676477E-1
8.837511666E-1,8.557639271E-2,-3.266712666E0,9.881137609E-1
8.938121666E-1,1.552302986E-1,-3.805109739E0,1.066770434E0
9.038721666E-1,1.515804231E-1,-4.152410030E0,1.217723250E0
9.139321666E-1,3.656142950E-2,-4.321166515E0,1.376718521E0
9.239931667E-1,-1.626278162E-1,-4.328215599E0,1.505089879E0
9.340531667E-1,-3.950935602E-1,-4.126636982E0,1.560254097E0
9.441131667E-1,-6.806198955E-1,-3.606266975E0,1.577058911E0
9.541741667E-1,-1.001295328E0,-2.818686485E0,1.677872300E0
9.642341667E-1,-1.109896064E0,-2.208027363E0,1.905620098E0
9.742941667E-1,-1.014565587E0,-1.959588766E0,2.141546726E0
9.843551666E-1,-8.398041725E-1,-2.012345791E0,2.293292999E0
9.944151666E-1,-6.718034744E-1,-2.166728735E0,2.370552301E0
1.004475167E0,-5.327894092E-1,-2.412376642E0,2.454873085E0
1.014536167E0,-4.307352006E-1,-2.688459873E0,2.571915150E0
1.024596167E0,-4.228207767E-1,-2.800898790E0,2.655973434E0
1.034656167E0,-4.830641448E-1,-2.894835711E0,2.741210938E0
1.044717167E0,-5.571957231E-1,-3.031987667E0,2.822851658E0
1.054777167E0,-5.769893527E-1,-3.122210741E0,2.851240873E0
1.064838167E0,-4.943613112E-1,-3.143291235E0,2.857923269E0
1.074898167E0,-2.516927421E-1,-3.164823055E0,2.881456614E0
1.084958167E0,1.034285799E-1,-3.185061693E0,2.877865553E0
1.095019167E0,4.725895822E-1,-3.112760782E0,2.818652868E0
1.105079167E0,7.472109795E-1,-2.957373857E0,2.748454571E0
1.115139167E0,8.808718324E-1,-2.641553164E0,2.642400265E0
1.125200167E0,8.588861227E-1,-2.069457054E0,2.456689119E0
1.135260167E0,7.068728805E-1,-1.392019868E0,2.215172529E0
1.145320167E0,4.989184439E-1,-7.946730256E-1,1.969362140E0
1.155381167E0,3.359500170E-1,-3.722942770E-1,1.725028753E0
1.165441167E0,2.911822498E-1,-1.264419407E-1,1.520865798E0
1.175501167E0,3.737767339E-1,-3.424782306E-2,1.396484733E0
1.185562167E0,5.269356966E-1,-8.784639835E-2,1.356364965E0
1.195622167E0,7.069984078E-1,-2.970598042E-1,1.385002136E0
1.205682167E0,8.856940866E-1,-6.017059684E-1,1.453042746E0
1.215743167E0,1.040814996E0,-8.624731302E-1,1.504798055E0
1.225803167E0,1.145865560E0,-1.062016010E0,1.537050247E0
1.235863417E0,1.242714047E0,-1.213932753E0,1.574875116E0
1.245924417E0,1.355267406E0,-1.305091381E0,1.594166040E0
1.255984417E0,1.469604731E0,-1.343181968E0,1.593717575E0
1.266044417E0,1.577454209E0,-1.336587429E0,1.582494378E0
1.276105417E0,1.653780699E0,-1.275159240E0,1.562711835E0
1.286165417E0,1.697355509E0,-1.158094049E0,1.547419548E0
1.296225417E0,1.704624414E0,-1.004435301E0,1.519575119E0
1.306286417E0,1.673054218E0,-8.515002131E-1,1.483780265E0
1.316346417E0,1.609382033E0,-7.253513336E-1,1.416153550E0
1.326406417E0,1.525901556E0,-6.351877451E-1,1.333508253E0
1.336467417E0,1.445028186E0,-5.790898204E-1,1.270498037E0
1.346527417E0,1.368622184E0,-5.312857628E-1,1.226509809E0
1.356587417E0,1.292823553E0,-4.921439290E-1,1.202702165E0
1.366648417E0,1.237743855E0,-4.646646678E-1,1.202834606E0
1.376708417E0,1.222054482E0,-4.386972487E-1,1.214498520E0
1.386769417E0,1.240624785E0,-4.290937185E-1,1.228379250E0
1.396829417E0,1.275210500E0,-4.459453821E-1,1.255939245E0
1.406889417E0,1.313811898E0,-4.232530296E-1,1.297832131E0
1.416950417E0,1.340897799E0,-3.375876546E-1,1.349362731E0
1.427010417E0,1.111320734E0,-5.372911692E-1,1.287788153E0
1.437070417E0,5.309908390E-1,-9.797767401E-1,1.088041782E0
1.447131417E0,-1.404131576E-2,-1.221519351E0,8.856501579E-1
1.457191417E0,-2.018325329E-1,-1.044567466E0,8.366987705E-1
1.467251417E0,-1.848998964E-1,-7.802259922E-1,9.838709831E-1
1.477312417E0,-1.297205389E-1,-6.715804338E-1,1.147850990E0
1.487372417E0,-4.052963108E-2,-7.492842674E-1,1.241759300E0
1.497432417E0,7.744867355E-2,-9.293658733E-1,1.273883700E0
1.507493417E0,1.691580564E-1,-1.186452150E0,1.346442699E0
1.517553417E0,2.460882664E-1,-1.369969726E0,1.468885303E0
1.527613417E0,2.961889207E-1,-1.455657959E0,1.560276151E0
1.537674417E0,3.000023067E-1,-1.476332068E0,1.629093051E0
1.547734417E0,2.263023704E-1,-1.445733547E0,1.723709702E0
1.557794417E0,1.449462622E-1,-1.452975392E0,1.889335632E0
1.567855417E0,6.395830512E-1,-1.456247211E0,1.763138175E0
1.577915417E0,7.151529193E-1,-1.931612492E0,1.894465923E0
1.587975417E0,5.986785889E-1,-2.322693825E0,2.039951086E0
1.598036417E0,7.651304007E-1,-2.208510399E0,1.762633801E0
1.608096417E0,6.756495237E-1,-2.069207191E0,1.600971699E0
1.618156417E0,4.788525999E-1,-1.850717902E0,1.261189699E0
1.628217417E0,4.030358195E-1,-1.428137898E0,1.374329805E0
1.638277417E0,3.597570360E-1,-1.005580544E0,1.587905407E0
1.648337417E0,3.320886493E-1,-7.027105093E-1,1.643551469E0
1.658398417E0,3.180295527E-1,-5.163070560E-1,1.841821432E0
1.668458417E0,7.543452084E-2,-6.056476235E-1,1.760951638E0
1.678518417E0,-1.763804108E-1,-7.019904256E-1,1.583768249E0
1.688579417E0,-4.358524084E-1,-2.578450143E-1,1.668410897E0
1.698639417E0,-7.083723545E-1,1.891255677E-1,1.668515563E0
1.708699417E0,-9.132670164E-1,5.658243895E-1,1.841698527E0
1.718760417E0,-1.156483293E0,9.983297586E-1,1.904997230E0
1.728820417E0,-1.019276738E0,1.051922202E0,1.515111566E0
1.738880417E0,-8.927726150E-1,7.633071542E-1,1.319041133E0
1.748941417E0,-7.790303230E-1,5.781673193E-1,1.098800540E0
1.759001417E0,-6.864441633E-1,6.100608110E-1,1.110101104E0
1.769062417E0,-6.827849746E-1,4.915550053E-1,1.107537866E0
1.779122417E0,-5.728965998E-1,3.786433637E-1,1.356659293E0
1.789182417E0,-5.717602968E-1,1.790338904E-1,1.564353228E0
1.799243417E0,-6.273058653E-1,2.236998975E-1,1.911668777E0
1.809303417E0,-6.405587792E-1,2.404503077E-1,2.104785204E0
1.819363417E0,-3.955940008E-1,-1.604298688E-2,1.918619871E0
1.829424417E0,-3.818557560E-1,-3.251290321E-1,1.714476466E0
1.839484417E0,-6.055839658E-1,-3.836938143E-1,1.689337254E0
1.849544417E0,-7.897919416E-1,4.429697245E-2,1.879657984E0
1.859605417E0,-1.044844627E0,3.643650115E-1,1.922117591E0
1.869665417E0,-1.171455026E0,5.079716444E-1,1.925468326E0
1.879725417E0,-1.131972075E0,5.014162660E-1,1.845460057E0
1.889786417E0,-1.001225829E0,2.488650680E-1,1.725772977E0
1.899846417E0,-8.482914567E-1,-8.547028899E-2,1.591287374E0
1.909906417E0,-7.760588527E-1,-2.395456731E-1,1.381288409E0
1.919967417E0,-7.845503688E-1,-3.991156220E-1,1.107971907E0
1.930027417E0,-8.452671766E-1,-2.968336642E-1,8.623934984E-1
1.940087417E0,-9.191443324E-1,-1.544046402E-1,6.796095371E-1
1.950148417E0,-9.231312871E-1,1.171875671E-1,5.496182442E-1
1.960208417E0,-1.013245702E0,1.061977670E-1,4.663987458E-1
1.970268417E0,-9.450115561E-1,2.302636951E-1,3.742874563E-1
1.980329417E0,-8.329476118E-1,1.967446208E-1,2.636965215E-1
1.990389417E0,-6.932587028E-1,3.653805703E-2,2.779402137E-1
2.000449417E0,-5.710047483E-1,2.060543001E-2,4.557008743E-1
2.010510417E0,-2.992919981E-1,2.613269687E-1,3.269665539E-1
2.020570417E0,1.956402659E-1,2.638300955E-1,-2.365948409E-1
2.030630417E0,1.916748434E-1,-6.061680913E-1,-7.204190493E-1
2.040691417E0,1.738132983E-1,-1.198156834E0,-8.523736000E-1
2.050751417E0,1.058662310E-1,-1.294089556E0,-6.260507703E-1
2.060811417E0,3.968534619E-2,-1.243515253E0,-2.970416844E-1
2.070872417E0,1.382837594E-1,-1.291668177E0,-7.559756935E-2
2.080932417E0,1.827966273E-1,-1.064729214E0,5.933654681E-2
2.090992417E0,5.994527042E-2,-7.231168151E-1,-4.822095111E-2
2.101053417E0,-3.294844925E-2,-4.735807478E-1,-1.019267887E-1
2.111113417E0,9.422176331E-2,-3.381819427E-1,-3.529169038E-2
2.121173417E0,3.400182128E-1,-2.196654379E-1,-8.698697202E-3
2.131234417E0,6.186733246E-1,-3.815905005E-2,2.083828859E-2
2.141294417E0,7.439167500E-1,3.631864488E-2,2.751083672E-2
2.151354417E0,6.162244678E-1,-2.155459821E-1,-6.837370340E-3
2.161415417E0,3.588089645E-1,-5.256327391E-1,-6.607779115E-2
2.171475417E0,1.540579349E-1,-6.413148046E-1,-3.176470101E-2
2.181535417E0,8.150596917E-2,-5.541303754E-1,-2.566869836E-3
2.191596417E0,1.180107892E-1,-4.139449298E-1,1.170630287E-2
2.201656417E0,2.031469941E-1,-3.307115436E-1,1.494151074E-2
2.211716417E0,2.579515278E-1,-2.644261718E-1,-2.987050265E-2
2.221777417E0,2.474589646E-1,-2.327143252E-1,-8.307300508E-2
2.231837083E0,1.912230998E-1,-2.121790797E-1,-1.106219664E-1
2.241897083E0,-2.607086860E-2,-3.928686976E-1,-2.222771347E-1
2.251958083E0,-4.571529925E-1,-8.548080921E-1,-3.718065619E-1
2.262018083E0,-6.467154622E-1,-9.427004457E-1,-3.087895513E-1
2.272078083E0,-6.350294948E-1,-5.860683918E-1,-2.339898348E-1
2.282139083E0,-4.914544821E-1,-2.104524225E-1,-8.434733748E-2
2.292199083E0,-3.629814982E-1,-9.165585041E-2,6.515756249E-2
2.302260083E0,-2.808298767E-1,-1.141164154E-1,1.238818616E-1
2.312320083E0,7.735490799E-2,4.172585607E-1,-4.877973720E-2
2.322380083E0,1.867855154E-2,1.524223536E-1,-2.129918486E-1
2.332441083E0,-9.024122357E-2,-1.150176395E-2,-1.426958144E-1
2.342501083E0,-1.325274259E-1,3.444601968E-2,-1.578966081E-1
2.352561083E0,-2.820650637E-1,-4.053229094E-2,-4.751736298E-2
2.362622083E0,-8.316360712E-1,-2.010702938E-1,1.444526166E-1
2.372682083E0,-1.308492661E0,-3.673220575E-1,5.775302052E-1
2.382742083E0,-1.071979761E0,-7.299932092E-2,1.021198034E0
2.392803083E0,-3.434662148E-2,5.089417696E-1,1.104400635E0
2.402863083E0,2.261973470E-1,5.645169020E-1,1.166780829E0
2.412923083E0,3.036610186E-1,3.544696569E-1,1.126944065E0
2.422984083E0,3.697628081E-1,3.309943974E-1,7.179616690E-1
2.433044083E0,3.220099211E-1,1.306956857E-1,2.067284137E-1
2.443104083E0,2.765225768E-1,-1.623100936E-1,-1.202843189E-1
2.453165083E0,3.658510745E-1,-2.013762295E-2,-1.647963524E-1
2.463225083E0,4.380379319E-1,-9.495726228E-2,-1.498288512E-1
2.473285083E0,5.747183561E-1,-1.380307078E-1,-6.004405767E-2
2.483346083E0,1.291317463E0,1.518434435E-1,1.637881435E-2
2.493406083E0,1.830268383E0,6.210407615E-1,1.889796108E-1
2.503466083E0,1.609582782E0,8.617138267E-1,2.674347460E-1
2.513527083E0,1.082892179E0,7.861459255E-1,2.835045755E-1
2.523587083E0,4.880103767E-1,3.826794028E-1,2.895952165E-1
2.533647083E0,-5.892704427E-2,1.457247436E-1,2.280801684E-1
2.543708083E0,-2.600692213E-1,1.886210889E-1,1.310287118E-1
2.553768083E0,-1.113686338E-1,3.734400868E-1,7.481354475E-2
2.563828083E0,1.334190220E-1,6.157975793E-1,5.511200428E-2
2.573889083E0,2.114684284E-1,6.905040145E-1,5.532590672E-2
2.583949083E0,1.440566331E-1,7.189494967E-1,9.619637579E-2
2.594009083E0,8.697210997E-2,7.046539783E-1,1.982943416E-1
2.604070083E0,5.628743395E-2,7.004744411E-1,1.946069300E-1
2.614130083E0,1.302900165E-1,7.744098902E-1,6.986091137E-1
2.624190083E0,4.750306010E-1,7.117374539E-1,1.021193743E0
2.634251083E0,5.155668855E-1,7.299762368E-1,6.506953835E-1
2.644311083E0,2.414565086E-1,8.593224883E-1,6.556533575E-1
2.654371083E0,1.710496694E-1,5.346535444E-1,7.714133263E-1
2.664432083E0,4.263546765E-1,5.671752691E-1,1.070895076E0
2.674492083E0,6.332242489E-1,9.295081496E-1,1.334216118E0
2.684552083E0,8.024271131E-1,1.111135483E0,1.373671293E0
2.694613083E0,6.228384376E-1,1.145790219E0,1.303855300E0
2.704673083E0,2.092644423E-1,1.034563899E0,1.120009780E0
2.714733083E0,1.135240644E-1,1.036115170E0,1.096325517E0
2.724794083E0,1.276351511E-3,1.141340375E0,1.091700077E0
2.734854083E0,-4.609672353E-2,1.359401941E0,1.176223755E0
2.744914083E0,1.267413646E-1,1.420736670E0,1.480407953E0
2.754975083E0,1.904966235E-1,1.216103911E0,1.736452341E0
2.765035083E0,1.152964085E-1,1.045688152E0,1.952669263E0
2.775095083E0,1.483883262E-1,9.345615506E-1,2.030527115E0
2.785156083E0,1.400901824E-1,9.629479051E-1,2.073936224E0
2.795216083E0,9.577975608E-3,7.013557553E-1,1.924687028E0
2.805276083E0,-2.020466626E-1,5.066558123E-1,1.784253001E0
2.815337083E0,-3.727795780E-1,2.278855741E-1,1.687191486E0
2.825397083E0,-3.434693515E-1,1.491345763E-1,1.614218235E0
2.835457083E0,-2.428967059E-1,3.495111167E-1,1.470116735E0
2.845518083E0,-2.178789824E-1,4.605095387E-1,1.309301019E0
2.855578083E0,-5.826506019E-2,9.612383246E-1,1.020959735E0
2.865638083E0,-1.763171256E-1,1.033690929E0,7.216561437E-1
2.875699083E0,-3.974353373E-1,7.416600585E-1,4.927993119E-1
2.885759083E0,-5.051157475E-1,4.634420574E-1,2.610515654E-1
2.895819083E0,-5.700821877E-1,4.052075744E-1,3.732929006E-2
2.905880083E0,-6.201408505E-1,5.672646761E-1,-2.019046098E-1
2.915940083E0,-5.670943260E-1,5.460703969E-1,-3.102017045E-1
2.926000083E0,-5.173342228E-1,6.830026507E-1,-4.099160731E-1
2.936061083E0,-5.585399866E-1,7.666350603E-1,-4.800723791E-1
2.946121083E0,-8.460535407E-1,7.029133439E-1,-5.034144521E-1
2.956181083E0,-1.347367764E0,5.680582523E-1,-5.197833776E-1
2.966242083E0,-1.533696651E0,7.444154620E-1,-6.313810349E-1
2.976302083E0,-1.619645000E0,8.562452793E-1,-6.832798719E-1
2.986362083E0,-1.751475453E0,6.862908602E-1,-7.484229207E-1
2.996423083E0,-1.825814962E0,4.689373374E-1,-8.001492620E-1
3.006483083E0,-1.993049383E0,4.150291085E-1,-6.891095638E-1
3.016543083E0,-2.200341702E0,3.890475631E-1,-4.840211272E-1
3.026604083E0,-2.420925379E0,2.173980474E-1,-4.504149556E-1
3.036664083E0,-2.570071220E0,-6.796768308E-2,-5.527992845E-1
3.046724083E0,-2.646434069E0,-5.289725661E-1,-6.878756285E-1
3.056785083E0,-2.722631931E0,-8.785031438E-1,-7.799571753E-1
3.066845083E0,-2.694400787E0,-1.082682610E0,-8.374614716E-1
3.076905083E0,-2.495252848E0,-1.201977253E0,-8.754301071E-1
3.086966083E0,-2.227033377E0,-1.139527440E0,-8.715693355E-1
3.097026083E0,-1.875977635E0,-7.447519302E-1,-7.564545274E-1
3.107086083E0,-1.456270933E0,-3.084797859E-1,-6.842394471E-1
3.117147083E0,-1.115944028E0,-2.361322567E-2,-6.885445118E-1
3.127207083E0,-9.657283425E-1,-1.669743806E-1,-7.501042485E-1
3.137267083E0,-9.623908401E-1,-4.123543203E-1,-7.752912641E-1
3.147328083E0,-9.997294545E-1,-7.384490967E-1,-7.647422552E-1
3.157388083E0,-1.016517997E0,-1.001700163E0,-7.330538034E-1
3.167448083E0,-1.001171470E0,-1.094462633E0,-6.887921095E-1
3.177509083E0,-9.210961461E-1,-1.038666487E0,-6.543273926E-1
3.187569083E0,-7.935600281E-1,-9.166510701E-1,-6.459578872E-1
3.197629083E0,-6.422408819E-1,-7.868152857E-1,-6.732354164E-1
3.207690083E0,-4.849202037E-1,-6.396423578E-1,-7.134704590E-1
3.217750083E0,-3.530137539E-1,-5.057170391E-1,-7.317329645E-1
3.227810083E0,-2.635419071E-1,-4.012239277E-1,-7.055511475E-1
3.237871917E0,-2.149121314E-1,-3.455649316E-1,-6.762676835E-1
3.247931917E0,-2.006828636E-1,-3.170565963E-1,-6.245922446E-1
3.257991917E0,-1.501227468E-1,-3.173269928E-1,-5.330320001E-1
3.268052917E0,-8.159853518E-2,-3.672857583E-1,-4.458177090E-1
3.278112917E0,8.026196621E-3,-3.977921009E-1,-3.773086667E-1
3.288172917E0,1.027343348E-1,-4.694985151E-1,-3.128133118E-1
3.298233917E0,1.938793808E-1,-5.532864928E-1,-2.368761748E-1
3.308293917E0,2.809439898E-1,-6.066237092E-1,-1.617465317E-1
3.318353917E0,3.806561530E-1,-5.316790342E-1,-7.309163362E-2
3.328414917E0,4.969286919E-1,-3.545543551E-1,1.257879101E-2
3.338474917E0,6.193963289E-1,-1.404968798E-1,7.985574752E-2
3.348534917E0,7.228673100E-1,4.341703653E-2,1.122752056E-1
