"Time (s)","Acceleration x (m/s^2)","Acceleration y (m/s^2)","Acceleration z (m/s^2)"
2.621326920E-1,-6.775590777E-1,3.825934410E0,8.614637375E0
2.641326920E-1,-6.153098345E-1,3.478775024E0,8.444648743E0
2.661316920E-1,-5.554547906E-1,3.186682463E0,8.284236908E0
2.681311920E-1,-4.908113480E-1,2.949656487E0,8.135796547E0
2.701308580E-1,-4.285621047E-1,2.758120298E0,8.011298180E0
2.721306080E-1,-3.543418646E-1,2.609679937E0,7.903559208E0
2.741304080E-1,-2.777273953E-1,2.501940727E0,7.805397034E0
2.761302410E-1,-2.130839527E-1,2.425326347E0,7.707234383E0
2.781300980E-1,-1.388636976E-1,2.363077164E0,7.613860607E0
2.801299730E-1,-5.506663769E-2,2.312798738E0,7.510910034E0
2.821299730E-1,2.873042040E-2,2.269703150E0,7.391200066E0
2.841299730E-1,1.005564705E-1,2.233790159E0,7.276278019E0
2.861299730E-1,1.628057212E-1,2.200271368E0,7.142202854E0
2.881299730E-1,2.106897533E-1,2.164358377E0,6.986579895E0
2.901299730E-1,2.466027737E-1,2.130839586E0,6.838139534E0
2.921299730E-1,2.633621991E-1,2.090138197E0,6.675333500E0
2.941299730E-1,2.226607651E-1,2.030282974E0,6.411971569E0
2.961283480E-1,1.915361285E-1,1.982398987E0,6.201281548E0
2.981267000E-1,1.651999205E-1,1.944091797E0,6.033687592E0
3.001271440E-1,1.340752989E-1,1.900996208E0,5.849334240E0
3.021270910E-1,9.097966552E-2,1.860294700E0,5.645826817E0
3.041270410E-1,5.027823523E-2,1.824381709E0,5.456685066E0
3.061269930E-1,4.788403399E-3,1.790862918E0,5.250783443E0
3.081269470E-1,-3.351882473E-2,1.769315004E0,5.030517101E0
3.101269030E-1,-6.224924326E-2,1.750161409E0,4.829104900E0
3.121268610E-1,-8.619125932E-2,1.735796213E0,4.623203278E0
3.141263410E-1,-1.029506698E-1,1.742978811E0,4.422090530E0
3.161263020E-1,-1.149216816E-1,1.754949808E0,4.249708176E0
3.181262640E-1,-1.173158810E-1,1.788468719E0,4.098873138E0
3.201262280E-1,-1.101332754E-1,1.831564307E0,3.974374771E0
3.221261930E-1,-9.576806426E-2,1.867477298E0,3.883395195E0
3.241261590E-1,-7.900865376E-2,1.886630893E0,3.828328609E0
3.261261590E-1,-7.422025502E-2,1.793257117E0,3.964797974E0
3.281261920E-1,9.576806426E-2,1.266532660E0,4.493916512E0
3.301262250E-1,2.418143749E-1,6.344634295E-1,5.222053051E0
3.321262580E-1,2.681505978E-1,-2.513911724E-1,6.280290127E0
3.341262910E-1,2.753331959E-1,-1.213860273E0,7.400776863E0
3.361254570E-1,2.825157940E-1,-1.984793186E0,8.298602104E0
3.381246230E-1,2.873041928E-1,-2.552218914E0,8.940248489E0
3.401246560E-1,4.022258818E-1,-2.942473888E0,9.366415977E0
3.421246560E-1,6.153098345E-1,-3.107673883E0,9.534010887E0
3.441246220E-1,8.379706144E-1,-3.155557871E0,9.598653793E0
3.461245880E-1,1.094150186E0,-3.023876667E0,9.565135002E0
3.481245540E-1,1.345541358E0,-2.748543501E0,9.490914345E0
3.501245200E-1,1.513135433E0,-2.401384354E0,9.433453560E0
3.521244860E-1,1.350329757E0,-1.661576033E0,9.299378395E0
3.541244520E-1,8.978256583E-1,-7.110779285E-1,8.753500938E0
3.561252850E-1,6.320692301E-1,7.422025502E-2,8.150161743E0
3.581261850E-1,9.169792533E-1,5.578489900E-1,7.642591000E0
3.601259180E-1,1.714248419E0,6.248866320E-1,7.522881031E0
3.621259510E-1,2.583343744E0,4.572925270E-1,7.771877766E0
3.641259840E-1,3.198653460E0,2.657563984E-1,8.095095634E0
3.661260170E-1,3.335123062E0,6.943184882E-2,8.492532730E0
3.681260500E-1,3.098097086E0,-5.267243832E-2,8.810961723E0
3.701260830E-1,2.777273893E0,-1.077390760E-1,9.021651268E0
3.721261160E-1,2.308010340E0,-3.112462163E-2,9.100660324E0
3.741265490E-1,1.647210717E0,3.663128614E-1,9.136572838E0
3.761256820E-1,1.120486379E0,6.847416759E-1,9.165303230E0
3.781247820E-1,6.991068721E-1,9.385270476E-1,9.189245224E0
3.801247820E-1,3.926490843E-1,1.261744261E0,9.253889084E0
3.821247820E-1,2.944868207E-1,1.592144132E0,9.337685585E0
3.841247820E-1,3.232172430E-1,1.874659896E0,9.416694641E0
3.861247820E-1,5.746083856E-1,2.094926596E0,9.488520622E0
3.881247480E-1,9.265560508E-1,2.195482969E0,9.543587685E0
3.901247140E-1,1.256955862E0,2.229001760E0,9.586683273E0
3.921246800E-1,1.575384736E0,2.183511972E0,9.603442192E0
3.941246460E-1,1.798045516E0,2.092532396E0,9.591471672E0
3.961254790E-1,1.927332401E0,1.996764183E0,9.577106476E0
3.981263120E-1,1.898601890E0,1.889025092E0,9.555558205E0
4.001262780E-1,1.738190413E0,1.786074519E0,9.541193008E0
4.021262440E-1,1.553836942E0,1.692700624E0,9.538799286E0
4.041262440E-1,1.335964561E0,1.618480325E0,9.541193008E0
4.061262770E-1,1.130063176E0,1.541865945E0,9.560346603E0
4.081263100E-1,9.457096457E-1,1.453280449E0,9.596260071E0
4.101263430E-1,7.924807668E-1,1.374271750E0,9.629778862E0
4.121263760E-1,6.799532771E-1,1.290474772E0,9.656114578E0
4.141264090E-1,6.057330370E-1,1.146822572E0,9.663297653E0
4.161255750E-1,5.458779931E-1,1.031900883E0,9.670479774E0
4.181247080E-1,4.979939461E-1,9.265560508E-1,9.675268173E0
4.201243410E-1,4.525041282E-1,8.403648138E-1,9.680056572E0
4.221243070E-1,4.094084799E-1,7.517793179E-1,9.682451248E0
4.241242730E-1,3.447650373E-1,6.727706790E-1,9.689633369E0
4.261242390E-1,2.609679997E-1,5.961562395E-1,9.694421768E0
4.281242050E-1,1.604115069E-1,5.315127969E-1,9.713575363E0
4.301241710E-1,6.703764945E-2,4.788403511E-1,9.735123634E0
4.321241370E-1,-2.633621916E-2,4.285621047E-1,9.773430824E0
4.341241030E-1,-1.221042871E-1,3.830722570E-1,9.830891609E0
4.361249690E-1,-2.130839527E-1,3.447650373E-1,9.890746117E0
4.381259020E-1,-3.160346150E-1,3.088520169E-1,9.960178375E0
4.401259350E-1,-4.094084799E-1,2.753331959E-1,1.002721596E1
4.421259680E-1,-4.812345505E-1,2.466027737E-1,1.008467674E1
4.441260010E-1,-5.291185975E-1,2.202665508E-1,1.013016701E1
4.461260340E-1,-5.602431893E-1,1.963245422E-1,1.016129112E1
4.481260670E-1,-5.793967843E-1,1.675941199E-1,1.018044472E1
4.501261000E-1,-5.817909837E-1,1.412578970E-1,1.019241619E1
4.521261330E-1,-4.596867263E-1,8.858546615E-2,1.022114658E1
4.541261330E-1,-3.471592367E-1,2.394201607E-2,1.030733776E1
4.561252660E-1,-2.849099934E-1,-2.633621916E-2,1.039113426E1
4.581252660E-1,-2.633621991E-1,-6.224924326E-2,1.047014332E1
4.601252660E-1,-2.920926213E-1,-8.379705995E-2,1.054915237E1
4.621252660E-1,-3.423708379E-1,-9.576806426E-2,1.061379528E1
4.641252660E-1,-4.429273009E-1,-9.576806426E-2,1.065928555E1
4.661252320E-1,-5.961562395E-1,-9.097966552E-2,1.067604446E1
4.681251980E-1,-7.613561153E-1,-9.337386489E-2,1.065928555E1
4.701251640E-1,-9.121908545E-1,-9.576806426E-2,1.062816048E1
4.721251300E-1,-1.060631394E0,-1.029506698E-1,1.056830597E1
4.741250960E-1,-1.211466074E0,-1.125274822E-1,1.049169159E1
4.761259290E-1,-1.343147159E0,-1.244984865E-1,1.041507626E1
4.781267950E-1,-1.455674648E0,-1.436520964E-1,1.032888508E1
4.801271280E-1,-1.546654344E0,-1.747767180E-1,1.024030018E1
4.821271280E-1,-1.618480325E0,-2.059013397E-1,1.016607952E1
4.841271610E-1,-1.678335428E0,-2.346317619E-1,1.010143661E1
4.861271940E-1,-1.711854219E0,-2.609679997E-1,1.004636955E1
4.881272270E-1,-1.711854219E0,-2.849099934E-1,9.993697166E0
4.901272600E-1,-1.699883223E0,-3.040636182E-1,9.943418503E0
4.921272930E-1,-1.663970232E0,-3.280056417E-1,9.890746117E0
4.941273260E-1,-1.568202138E0,-3.854664862E-1,9.862015724E0
4.961264920E-1,-1.491587639E0,-4.333505034E-1,9.838073730E0
4.981255920E-1,-1.429338455E0,-4.716577232E-1,9.818920135E0
5.001255580E-1,-1.347935557E0,-5.219359994E-1,9.835680008E0
5.021255240E-1,-1.266532660E0,-5.698199868E-1,9.864410400E0
5.041254900E-1,-1.170764685E0,-6.153098345E-1,9.907505989E0
5.061254560E-1,-1.065419793E0,-6.536170840E-1,9.936236382E0
5.081254220E-1,-9.696516991E-1,-6.799532771E-1,9.938630104E0
5.101253880E-1,-8.762778044E-1,-6.991068721E-1,9.929053307E0
5.121253540E-1,-7.972691655E-1,-7.062895298E-1,9.890746117E0
5.141253540E-1,-7.398083210E-1,-7.110779285E-1,9.828496933E0
5.161262540E-1,-6.991068721E-1,-7.134721279E-1,9.763854027E0
5.181262870E-1,-6.464344859E-1,-7.038952708E-1,9.694421768E0
5.201263200E-1,-5.674257874E-1,-6.775590777E-1,9.622595787E0
5.221263530E-1,-4.932055473E-1,-6.464344859E-1,9.555558205E0
5.241263860E-1,-4.333505034E-1,-6.033388376E-1,9.493309021E0
5.261261860E-1,-4.094084799E-1,-5.363011956E-1,9.433453560E0
5.281262190E-1,-3.926490843E-1,-4.189853072E-1,9.392752647E0
5.301262520E-1,-3.902548850E-1,-3.064578176E-1,9.361627579E0
5.321262520E-1,-4.620809257E-1,-2.059013397E-1,9.349657059E0
5.341262520E-1,-6.895300746E-1,-1.149216816E-1,9.395146370E0
5.361253850E-1,-8.714894056E-1,-4.309562966E-2,9.431059837E0
5.381250510E-1,-1.017535686E0,1.197100803E-2,9.459790230E0
5.401250510E-1,-1.187524080E0,6.224924326E-2,9.727940559E0
5.421250510E-1,-1.343147159E0,1.197100878E-1,1.008707142E1
5.441250170E-1,-1.496376038E0,2.442085743E-1,1.054436398E1
5.461249830E-1,-1.620874524E0,4.381389022E-1,1.080772591E1
5.481249490E-1,-1.699883223E0,6.416460276E-1,1.092025280E1
5.501249150E-1,-1.675941229E0,8.116343617E-1,1.087236881E1
5.521248810E-1,-1.527500629E0,9.074024558E-1,1.082209110E1
5.541248470E-1,-1.338358760E0,9.193734527E-1,1.087476349E1
5.561256800E-1,-1.187524080E0,9.050082564E-1,1.096813679E1
5.581265460E-1,-1.070208192E0,8.762778044E-1,1.106390572E1
5.601265460E-1,-9.816226959E-1,8.355764151E-1,1.115009689E1
5.621265790E-1,-9.169792533E-1,7.829039693E-1,1.122910500E1
5.641266120E-1,-8.667010069E-1,6.823474765E-1,1.130093098E1
5.661266450E-1,-8.092401624E-1,5.602431893E-1,1.134642124E1
5.681266780E-1,-7.541735172E-1,4.453215301E-1,1.136557484E1
5.701267110E-1,-6.775590777E-1,3.136404157E-1,1.134402657E1
5.721267440E-1,-5.913678408E-1,1.556231081E-1,1.128656578E1
5.741267770E-1,-4.884171486E-1,-1.173158810E-1,1.120516300E1
5.761259100E-1,-4.046200812E-1,-3.351882398E-1,1.114052010E1
5.781249760E-1,-3.375824392E-1,-5.099649429E-1,1.108784771E1
5.801249420E-1,-2.681505978E-1,-6.895300746E-1,1.104235744E1
5.821249080E-1,-2.011129409E-1,-8.451532125E-1,1.099207973E1
5.841248740E-1,-1.292868853E-1,-9.792284966E-1,1.089152241E1
5.861250740E-1,-9.337386489E-2,-1.125274777E0,1.089152241E1
5.881255070E-1,-6.943184882E-2,-1.261744261E0,1.092743587E1
5.901254730E-1,-3.351882473E-2,-1.379060149E0,1.090828228E1
5.921254730E-1,2.394201607E-2,-1.472434044E0,1.081969643E1
5.941255060E-1,1.197100878E-1,-1.537077546E0,1.065928555E1
5.961264060E-1,2.274491638E-1,-1.587355733E0,1.047732544E1
5.981267720E-1,3.782838583E-1,-1.570596337E0,1.021156979E1
6.001268050E-1,5.626373887E-1,-1.479616642E0,9.900322914E0
6.021268380E-1,7.445967197E-1,-1.367089152E0,9.593865395E0
6.041268710E-1,9.528923035E-1,-1.228225470E0,9.280224800E0
6.061273710E-1,1.151610970E0,-1.106121182E0,8.990526199E0
6.081274040E-1,1.328781962E0,-1.010353088E0,8.743924141E0
6.101274040E-1,1.489193439E0,-9.457096457E-1,8.521263123E0
6.121274040E-1,1.620874524E0,-9.074024558E-1,8.329727173E0
6.141274040E-1,1.721431017E0,-9.385270476E-1,8.171710014E0
6.161265370E-1,1.800439715E0,-9.624691010E-1,8.044816971E0
6.181256700E-1,1.865083098E0,-9.816226959E-1,7.944260597E0
6.201257030E-1,1.905784607E0,-1.007958889E0,7.872434616E0
6.221256690E-1,1.929726601E0,-1.036689281E0,7.831733227E0
6.241256350E-1,1.934514999E0,-1.074996591E0,7.819762230E0
6.261256010E-1,1.920149803E0,-1.130063176E0,7.812579632E0
6.281255670E-1,1.905784607E0,-1.187524080E0,7.805397034E0
6.301253670E-1,1.886630893E0,-1.264138460E0,7.805397034E0
6.321253330E-1,1.855506301E0,-1.364694953E0,7.853281021E0
6.341252990E-1,1.814804912E0,-1.462857246E0,7.951443195E0
6.361261320E-1,1.738190413E0,-1.553836942E0,8.056788445E0
6.381270320E-1,1.649604917E0,-1.651999116E0,8.221987724E0
6.401270650E-1,1.556231141E0,-1.754949808E0,8.403946877E0
6.421270980E-1,1.470039845E0,-1.853112102E0,8.578723907E0
6.441271310E-1,1.364694953E0,-1.958456993E0,8.801384926E0
6.461271640E-1,1.182735682E0,-2.092532396E0,9.083900452E0
6.481267300E-1,9.720458984E-1,-2.240972757E0,9.352050781E0
6.501267630E-1,7.493851185E-1,-2.403778553E0,9.610625267E0
6.521267960E-1,5.793967843E-1,-2.561795712E0,9.821314812E0
6.541267960E-1,4.860229492E-1,-2.731784105E0,9.969755173E0
6.561258960E-1,4.285621047E-1,-2.877830505E0,1.007509995E1
6.581258620E-1,4.046200812E-1,-3.009511471E0,1.013734913E1
6.601258280E-1,4.285621047E-1,-3.126827478E0,1.015410900E1
6.621257940E-1,4.740519226E-1,-3.224989653E0,1.015171432E1
6.641257600E-1,5.722141862E-1,-3.303998232E0,1.010143661E1
6.661252600E-1,7.326257229E-1,-3.356670856E0,9.969755173E0
6.681252260E-1,9.002198577E-1,-3.392583847E0,9.799766541E0
6.701252260E-1,1.098938584E0,-3.397372246E0,9.567529678E0
6.721252590E-1,1.321599364E0,-3.378218651E0,9.356839180E0
6.741252920E-1,1.525106430E0,-3.342305660E0,9.189245224E0
6.761261920E-1,1.738190413E0,-3.282450438E0,9.064746857E0
6.781270920E-1,1.958456993E0,-3.208230257E0,8.983344078E0
6.801270920E-1,2.176329374E0,-3.112462282E0,8.913911819E0
6.821271250E-1,2.377442360E0,-3.021482468E0,8.844480515E0
6.841271580E-1,2.590526342E0,-2.925714493E0,8.784625053E0
6.861271910E-1,2.820369720E0,-2.834734917E0,8.748712540E0
6.881271910E-1,3.023876667E0,-2.758120298E0,8.715193748E0
6.901273570E-1,3.229778051E0,-2.612074137E0,8.633790970E0
6.921273570E-1,3.440467834E0,-2.365471363E0,8.530839920E0
6.941273570E-1,3.653551817E0,-2.195482969E0,8.573935509E0
6.961264900E-1,3.825934410E0,-2.059013367E0,8.607454300E0
6.981255900E-1,3.962403774E0,-1.951274395E0,8.636184692E0
7.001255560E-1,4.125209332E0,-1.960851192E0,8.866027832E0
7.021255220E-1,4.285621166E0,-2.006340981E0,9.091083527E0
7.041254880E-1,4.446032524E0,-2.023100376E0,9.265859604E0
7.061254540E-1,4.630385876E0,-2.133233786E0,9.603442192E0
7.081254200E-1,4.807557106E0,-2.231395960E0,9.933841705E0
7.101253860E-1,4.958691120E0,-2.308010340E0,1.005115795E1
7.121253520E-1,5.054459095E0,-2.365471363E0,1.006073475E1
7.141253180E-1,5.114314079E0,-2.449268341E0,1.014692593E1
7.161261840E-1,5.111919880E0,-2.568978310E0,1.014453220E1
7.181261840E-1,5.064035892E0,-2.583343744E0,9.890746117E0
7.201262170E-1,4.970662117E0,-2.533065319E0,9.502885818E0
7.221262500E-1,4.906018734E0,-2.528276920E0,9.285013199E0
7.241262830E-1,4.917989731E0,-2.535459518E0,9.206005096E0
7.261263160E-1,4.951508522E0,-2.535459518E0,9.141361237E0
7.281263490E-1,4.920383930E0,-2.528276920E0,9.040804863E0
7.301263820E-1,4.800374508E0,-2.525882721E0,8.672098160E0
7.321263820E-1,4.683058739E0,-2.564189911E0,8.585906982E0
7.341268480E-1,4.642356873E0,-2.662352324E0,8.770259857E0
7.361259480E-1,4.599261284E0,-2.777273893E0,8.947430611E0
7.381251480E-1,4.563348293E0,-2.870647907E0,9.091083527E0
7.401251140E-1,4.498704910E0,-3.086126089E0,9.380781174E0
7.421250800E-1,4.398148537E0,-3.270479441E0,9.450213432E0
7.441250460E-1,4.218583584E0,-3.301604033E0,9.215581894E0
7.461250120E-1,4.029441357E0,-3.323152065E0,9.146149635E0
7.481250120E-1,3.890577793E0,-3.339911461E0,9.189245224E0
7.501250450E-1,3.857059002E0,-3.335123062E0,9.378387451E0
7.521250780E-1,3.933673382E0,-3.313575268E0,9.574711800E0
7.541251110E-1,4.017470360E0,-3.311181068E0,9.744700432E0
7.561260110E-1,4.103661537E0,-3.375824451E0,9.941024780E0
7.581269440E-1,4.182670593E0,-3.600879431E0,1.024987698E1
7.601267770E-1,4.103661537E0,-3.785232782E0,1.013734913E1
7.621268100E-1,3.950432777E0,-3.900154591E0,9.900322914E0
7.641268430E-1,3.687070608E0,-3.976768970E0,9.742305756E0
7.661268430E-1,3.402160645E0,-4.019864559E0,9.620202065E0
7.681268430E-1,3.155557871E0,-4.058171749E0,9.581894875E0
7.701268430E-1,2.952050686E0,-4.101267338E0,9.613018990E0
7.721268430E-1,2.794033289E0,-4.153939724E0,9.658509254E0
7.741268430E-1,2.655169725E0,-4.278438568E0,9.613018990E0
7.761259760E-1,2.540247917E0,-4.419696331E0,9.605836868E0
7.781254760E-1,2.446874142E0,-4.532223701E0,9.601048470E0
7.801254420E-1,2.363077164E0,-4.718971729E0,9.692028046E0
7.821250080E-1,2.190694571E0,-4.809951305E0,9.431059837E0
7.841249740E-1,1.951274395E0,-4.812345505E0,9.076718330E0
7.861249400E-1,1.728613615E0,-4.797980309E0,8.837297440E0
7.881249060E-1,1.568202138E0,-4.778826714E0,8.698433876E0
7.901248720E-1,1.532289028E0,-4.754884720E0,8.708010674E0
7.921248380E-1,1.556231141E0,-4.747702122E0,8.794201851E0
7.941243380E-1,1.596932530E0,-4.752490520E0,8.904335022E0
7.961252040E-1,1.692700624E0,-4.790797710E0,9.103054047E0
7.981260040E-1,1.826775908E0,-4.910807133E0,9.397541046E0
8.001260370E-1,1.924938202E0,-4.949114323E0,9.378387451E0
8.021260700E-1,1.977610588E0,-4.908412933E0,9.253889084E0
8.041261030E-1,2.068590164E0,-4.886565685E0,9.304166794E0
8.061261360E-1,2.276885748E0,-4.865017891E0,9.457395554E0
8.081261690E-1,2.521094322E0,-4.843470097E0,9.641749382E0
8.101261690E-1,2.839523315E0,-4.865017891E0,1.001524544E1
8.121261350E-1,3.141192675E0,-4.707000732E0,9.960178375E0
8.141261010E-1,3.426102638E0,-4.618414879E0,1.017565632E1
8.161252010E-1,3.655946016E0,-4.546588898E0,1.034803867E1
8.181243010E-1,3.837905407E0,-4.489128113E0,1.048690319E1
8.201237670E-1,3.983951569E0,-4.443638325E0,1.059703636E1
8.221237330E-1,4.031835556E0,-4.455609322E0,1.048450851E1
8.241236990E-1,4.007893562E0,-4.367023945E0,1.019480991E1
8.261236990E-1,4.024652958E0,-4.374206543E0,1.006312943E1
8.281237320E-1,4.050989151E0,-4.400542736E0,9.986514091E0
8.301237650E-1,4.065354347E0,-4.529829502E0,1.008707142E1
8.321237980E-1,3.969586372E0,-4.601655483E0,9.864410400E0
8.341238310E-1,3.859453201E0,-4.639962673E0,9.593865395E0
8.361247310E-1,3.892971992E0,-4.786009312E0,9.486125946E0
8.381253970E-1,4.048594952E0,-5.004180908E0,9.428665161E0
8.429125380E-1,4.161122322E0,-5.212476254E0,9.459790230E0
8.449129710E-1,4.103661537E0,-5.322609425E0,9.311349869E0
8.469129710E-1,3.864241600E0,-5.255571842E0,9.028834343E0
8.489129710E-1,3.600879431E0,-5.150227070E0,8.873210907E0
8.509129710E-1,3.435679436E0,-5.018546104E0,8.770259857E0
8.529129710E-1,3.318363667E0,-4.831499100E0,8.760683060E0
8.549129710E-1,3.002328873E0,-4.723760128E0,8.600272179E0
8.569126710E-1,2.511517525E0,-4.594472885E0,8.312967300E0
8.589118040E-1,2.118868589E0,-4.491522312E0,8.083124161E0
8.609117700E-1,1.769315004E0,-4.446032524E0,8.001721382E0
8.629117360E-1,1.472434044E0,-4.438849926E0,7.970596790E0
8.649117020E-1,1.233013868E0,-4.510675907E0,8.111854553E0
8.669116680E-1,9.935936928E-1,-4.606443882E0,8.018480301E0
8.689116340E-1,7.637503147E-1,-4.649539471E0,7.855675220E0
8.709116000E-1,5.793967843E-1,-4.685452938E0,7.793426037E0
8.729115660E-1,5.554547906E-1,-4.774038315E0,7.865252018E0
8.749115660E-1,6.847416759E-1,-4.891354084E0,8.035240173E0
8.769115660E-1,9.026140571E-1,-5.044882298E0,8.293813705E0
8.789124660E-1,1.086967587E0,-5.140650272E0,8.320150375E0
8.809133660E-1,1.235408068E0,-5.147832870E0,8.262689590E0
8.829140990E-1,1.357512355E0,-5.140650272E0,8.279448509E0
8.849141320E-1,1.501164436E0,-5.162198067E0,8.396764755E0
8.869141650E-1,1.671152830E0,-5.193322659E0,8.617031097E0
8.889141980E-1,1.836352706E0,-5.260360241E0,8.952219009E0
8.909141980E-1,1.982398987E0,-5.348946095E0,9.100660324E0
8.929141640E-1,2.047042370E0,-5.360917091E0,9.083900452E0
8.949141300E-1,2.094926596E0,-5.360917091E0,9.098265648E0
8.969140960E-1,2.217030764E0,-5.404012680E0,9.313743591E0
8.989131960E-1,2.334346771E0,-5.461473465E0,9.565135002E0
9.009121290E-1,2.430114746E0,-5.509357452E0,9.766247749E0
9.029117950E-1,2.513911724E0,-5.571606636E0,9.948206902E0
9.049117610E-1,2.552218914E0,-5.530905247E0,9.773430824E0
9.069117610E-1,2.585737944E0,-5.408801079E0,9.624990463E0
9.089117610E-1,2.633621931E0,-5.301061630E0,9.476549149E0
9.109117610E-1,2.707842112E0,-5.224447250E0,9.397541046E0
9.129117610E-1,2.801215887E0,-5.193322659E0,9.385569572E0
9.149117610E-1,2.887407303E0,-5.229235649E0,9.313743591E0
9.169120610E-1,2.930502892E0,-5.205293655E0,9.110237122E0
9.189129270E-1,2.952050686E0,-5.111919880E0,8.971372604E0
9.209129270E-1,3.009511471E0,-5.049670696E0,8.918700218E0
9.229129270E-1,3.071760893E0,-5.032911301E0,8.906729698E0
9.249129600E-1,3.129221678E0,-5.087977886E0,9.016862869E0
9.269129930E-1,3.110068083E0,-5.155015469E0,8.995314598E0
9.289130260E-1,3.055001259E0,-5.150227070E0,8.834903717E0
9.309130590E-1,2.995146275E0,-5.102343082E0,8.736741066E0
9.329130920E-1,3.023876667E0,-5.121496677E0,8.736741066E0
9.349131250E-1,3.098097086E0,-5.198111057E0,8.854057312E0
9.369131580E-1,3.112462282E0,-5.159803867E0,8.674491882E0
9.389122910E-1,3.153163671E0,-5.123890877E0,8.549993515E0
9.409119240E-1,3.186682463E0,-5.095160484E0,8.451830864E0
