"Time (s)","Acceleration x (m/s^2)","Acceleration y (m/s^2)","Acceleration z (m/s^2)"
2.031635700E-2,-2.394019127E0,3.599403381E0,6.929614544E0
3.055344000E-2,-1.929811478E0,4.194019794E0,8.495717049E0
3.304422200E-2,-1.752144337E0,4.361517429E0,8.984451294E0
3.553167000E-2,-1.560718536E0,4.361517429E0,9.300901413E0
3.802245100E-2,-1.320838094E0,4.328018188E0,9.626923561E0
4.051318000E-2,-1.081555843E0,4.227519512E0,1.001456070E1
4.300396100E-2,-8.518448472E-1,4.107280254E0,1.028315544E1
4.549474200E-2,-6.215356588E-1,3.853640795E0,1.046500969E1
4.798552400E-2,-2.769692242E-1,3.470191002E0,1.064207840E1
5.047630500E-2,8.255238086E-2,2.967100143E0,1.069053364E1
5.296708600E-2,5.090730190E-1,2.425724030E0,1.062772179E1
5.545786700E-2,9.308080077E-1,1.898704767E0,1.057986546E1
5.794864900E-2,1.251446247E0,1.390828133E0,1.043629551E1
6.043943000E-2,1.347757339E0,1.113260746E0,1.027358437E1
6.293021100E-2,1.294517040E0,8.255237937E-1,1.010548782E1
6.514500300E-2,1.256231904E0,4.953143001E-1,9.937990189E0
6.763578400E-2,1.122233868E0,1.884347796E-1,9.708279610E0
7.012656500E-2,8.063812256E-1,2.123630047E-1,9.607781410E0
7.261734700E-2,4.947160780E-1,3.750749528E-1,9.473184586E0
7.510807600E-2,1.926222295E-1,4.953143001E-1,9.473184586E0
7.759880500E-2,-1.794617064E-2,5.766702294E-1,9.612566948E0
8.008958600E-2,-2.285145670E-1,7.537391186E-1,9.751350403E0
8.258036700E-2,-4.588237405E-1,8.685946465E-1,9.904491425E0
8.507114900E-2,-6.406782866E-1,9.744769931E-1,1.011565781E1
8.756198200E-2,-8.039883971E-1,1.098903775E0,1.027836990E1
9.005271100E-2,-1.024128079E0,1.218544960E0,1.037886810E1
9.254349200E-2,-1.272981644E0,1.285543919E0,1.047458076E1
9.472781500E-2,-1.579861164E0,1.347757339E0,1.058465099E1
9.721859700E-2,-1.857428551E0,1.501496196E0,1.062293625E1
9.970937800E-2,-2.082952023E0,1.578066587E0,1.065703392E1
1.022001590E-1,-2.279163599E0,1.692921996E0,1.075274658E1
1.046909400E-1,-2.571686029E0,1.726421595E0,1.097288609E1
1.071817220E-1,-2.743969440E0,1.879562140E0,1.125105190E1
1.096725030E-1,-2.772683144E0,1.970489502E0,1.143290615E1
1.121632320E-1,-2.834896564E0,2.009372711E0,1.166261768E1
1.146540130E-1,-2.950350285E0,2.143370867E0,1.185942745E1
1.171447950E-1,-2.945564747E0,2.172084808E0,1.202692509E1
1.196355760E-1,-2.916252613E0,2.205584288E0,1.215613747E1
1.221263570E-1,-2.743969440E0,2.205584288E0,1.222792149E1
1.243080760E-1,-2.514258385E0,2.191227436E0,1.223270798E1
1.267988570E-1,-2.264806747E0,2.133799553E0,1.222792149E1
1.292896380E-1,-2.011167526E0,2.003988981E0,1.229073334E1
1.317804200E-1,-1.661217093E0,1.793420553E0,1.230987644E1
1.342712010E-1,-1.162911773E0,1.534995675E0,1.223270798E1
1.367619300E-1,-6.933203340E-1,1.175474167E0,1.216570854E1
1.392527110E-1,-4.971089065E-1,9.020941257E-1,1.215613747E1
1.417434920E-1,-3.822534084E-1,6.005984545E-1,1.202213955E1
1.442342740E-1,-2.476571500E-1,4.187439680E-1,1.186899853E1
1.467250550E-1,-1.423729509E-1,2.937189937E-1,1.152861977E1
1.492158360E-1,1.112662554E-1,1.405783296E-1,1.122712421E1
1.517066170E-1,1.926222295E-1,8.315058798E-2,1.091545868E1
1.538883360E-1,3.702892959E-1,-3.170489892E-2,1.063250732E1
1.563791170E-1,5.425725579E-1,-1.178465188E-1,1.049850941E1
1.588699510E-1,5.521438122E-1,9.272187948E-2,1.022572803E1
1.613606800E-1,6.861419082E-1,-8.913264424E-2,1.015872860E1
1.638514610E-1,8.063812256E-1,-3.577269912E-1,1.024965572E1
1.663422420E-1,9.690931439E-1,-5.300102234E-1,1.042672443E1
1.688329720E-1,1.064806104E0,-6.496513486E-1,1.065224838E1
1.713237530E-1,1.069591761E0,-7.938188910E-1,1.089631653E1
1.738145340E-1,1.007378340E0,-8.656035662E-1,1.109252739E1
1.763053150E-1,8.494520187E-1,-8.512466550E-1,1.125583744E1
1.787960970E-1,6.669993401E-1,-8.608179688E-1,1.147597694E1
1.812868780E-1,4.229314029E-1,-7.651050687E-1,1.178764248E1
1.834685970E-1,1.974078715E-1,-6.352944374E-1,1.194556904E1
1.859594300E-1,1.196411322E-3,-4.965106845E-1,1.202213955E1
1.884501590E-1,-1.854437590E-1,-3.625126183E-1,1.200299644E1
1.909409400E-1,-3.152543902E-1,-1.902294010E-1,1.194078350E1
1.934317220E-1,-4.827519655E-1,-5.084748194E-2,1.177328587E1
1.959224510E-1,-5.210371017E-1,1.070788130E-1,1.144726372E1
1.984132320E-1,-5.258227587E-1,2.027917206E-1,1.123669529E1
2.009040130E-1,-5.353940725E-1,3.607180119E-1,1.100638580E1
2.033947950E-1,-4.157529473E-1,5.096712112E-1,1.084845924E1
2.058855760E-1,-3.535395563E-1,7.010970116E-1,1.079581738E1
2.083763570E-1,-2.285145670E-1,8.159525394E-1,1.078146076E1
2.108671380E-1,-1.136590764E-1,9.164510965E-1,1.076710415E1
2.130488570E-1,-8.374879137E-3,9.649057388E-1,1.064207840E1
2.155396380E-1,1.591227055E-1,1.055832982E0,1.057507992E1
2.180304200E-1,2.500499785E-1,1.084546804E0,1.057507992E1
2.205212010E-1,3.894318938E-1,1.022333503E0,1.055115128E1
2.230119820E-1,6.095715761E-1,9.888339639E-1,1.055115128E1
2.255027630E-1,7.100701332E-1,8.590233326E-1,1.065703392E1
2.279934920E-1,7.866404653E-1,7.154539824E-1,1.075274658E1
2.304842740E-1,8.446664214E-1,5.288137794E-1,1.080060291E1
2.329750550E-1,8.542376757E-1,3.367897868E-1,1.086760235E1
2.354658360E-1,8.733802438E-1,1.788634956E-1,1.095374393E1
2.379566170E-1,8.542376757E-1,-3.649054468E-2,1.104467106E1
2.404473990E-1,7.914260626E-1,-2.476571500E-1,1.106381416E1
2.426291170E-1,8.063812256E-1,-4.725824594E-1,1.096331501E1
2.451198990E-1,7.052844763E-1,-6.496513486E-1,1.084845924E1
2.476106800E-1,6.909275651E-1,-8.656035662E-1,1.071446133E1
2.501014610E-1,6.574280262E-1,-1.066600680E0,1.062772179E1
2.525922420E-1,5.569294691E-1,-1.244267821E0,1.053200912E1
2.550829720E-1,5.856433511E-1,-1.411765337E0,1.043629551E1
2.575737530E-1,6.574280262E-1,-1.579262972E0,1.034536839E1
2.600645340E-1,6.717849374E-1,-1.689332843E0,1.027358437E1
2.625553150E-1,7.244270444E-1,-1.838286042E0,1.022094154E1
2.650460970E-1,7.579265833E-1,-1.895713687E0,1.017308521E1
2.675368780E-1,7.914260626E-1,-1.847857237E0,1.012522888E1
2.700276590E-1,8.446664214E-1,-1.866999865E0,1.011027431E1
2.722093780E-1,8.398807645E-1,-1.910070658E0,1.008634567E1
2.747001590E-1,7.962117195E-1,-1.847857237E0,1.005763149E1
2.771909400E-1,7.387840152E-1,-1.756929994E0,1.008156013E1
2.796817220E-1,6.430711150E-1,-1.560120344E0,1.013001442E1
2.821725030E-1,5.234299302E-1,-1.392622828E0,1.011565781E1
2.846632840E-1,4.612165689E-1,-1.128814101E0,1.014915752E1
2.871540650E-1,3.128615618E-1,-8.464609981E-1,1.007677460E1
2.896447950E-1,1.734796464E-1,-5.922235847E-1,9.942776680E0
2.921355760E-1,2.991028316E-2,-2.955136001E-1,9.875777245E0
2.946263570E-1,-8.015955985E-2,6.400800496E-2,9.842277527E0
2.971171380E-1,-1.471585929E-1,3.320041299E-1,9.736993790E0
2.996079200E-1,-2.721835673E-1,6.723831892E-1,9.636494637E0
3.017896900E-1,-3.343969584E-1,9.888339639E-1,9.641280174E0
3.042804200E-1,-4.444667995E-1,1.285543919E0,9.770493507E0
3.067712010E-1,-5.353940725E-1,1.511067510E0,9.856635094E0
3.092619820E-1,-5.401797295E-1,1.802991867E0,9.995418549E0
3.117527630E-1,-6.215356588E-1,2.014158487E0,1.010070229E1
3.142434920E-1,-6.454638839E-1,2.157727718E0,1.010548782E1
3.167342740E-1,-6.454638839E-1,2.291725874E0,1.006241703E1
3.192250550E-1,-6.981059909E-1,2.392224550E0,1.000977516E1
3.217158360E-1,-7.076773047E-1,2.349153519E0,9.885348320E0
3.242066700E-1,-7.651050687E-1,2.358724833E0,9.727422714E0
3.266973990E-1,-8.709874153E-1,2.349153519E0,9.521040916E0
3.291881800E-1,-9.379864931E-1,2.219941139E0,9.334401131E0
3.313698990E-1,-9.619147182E-1,2.071586132E0,9.152546883E0
3.338607320E-1,-1.004985452E0,1.879562140E0,9.061619759E0
3.363514610E-1,-1.057627559E0,1.578066587E0,8.936594009E0
3.388422420E-1,-1.268195987E0,1.275972724E0,8.740383148E0
3.413330240E-1,-1.268195987E0,9.840483069E-1,8.630312920E0
3.438238050E-1,-1.182054400E0,8.303094506E-1,8.490931511E0
3.463145860E-1,-1.129412293E0,6.197410822E-1,8.299505234E0
3.488053150E-1,-1.052842021E0,4.761717021E-1,8.074580193E0
3.512960970E-1,-9.475577474E-1,3.272185028E-1,7.877770424E0
3.537868780E-1,-9.140582681E-1,2.075773627E-1,7.657630444E0
3.562776590E-1,-8.566305041E-1,1.214357466E-1,7.451848030E0
3.587684400E-1,-7.890332937E-1,4.486542568E-2,7.403393269E0
3.609502630E-1,-7.268198729E-1,5.443671346E-2,7.211967468E0
3.634410450E-1,-5.832505226E-1,1.645065546E-1,4.893322468E0
3.659317740E-1,-5.641079545E-1,4.007977992E-2,3.431905985E0
3.684225550E-1,-8.757730722E-1,1.501496136E-1,5.831906796E0
3.709133360E-1,-1.253839016E0,3.894318938E-1,7.369893551E0
3.734041170E-1,-1.527219057E0,5.814558864E-1,7.293323517E0
3.758948470E-1,-1.737787485E0,6.771687865E-1,6.929614544E0
3.783856280E-1,-1.910668850E0,8.063812256E-1,6.646663189E0
3.808764090E-1,-2.011167526E0,9.457631707E-1,6.804589272E0
3.833671900E-1,-2.087737799E0,1.074975610E0,7.355536938E0
3.858579720E-1,-2.087737799E0,1.141974568E0,7.988438606E0
3.883487530E-1,-2.001596212E0,1.208973646E0,8.371290207E0
3.905304720E-1,-1.929811478E0,1.271187067E0,8.553742409E0
3.930213050E-1,-1.934597135E0,1.338186026E0,8.697312355E0
3.955120340E-1,-1.891526341E0,1.376471281E0,8.869595528E0
3.980028150E-1,-1.891526341E0,1.362114310E0,8.946166039E0
4.004935970E-1,-1.958525300E0,1.400399446E0,9.022735596E0
4.029843780E-1,-1.982453585E0,1.429113269E0,9.162117958E0
4.054751590E-1,-2.025524378E0,1.453041553E0,9.257830620E0
4.079659400E-1,-2.039881229E0,1.376471281E0,9.343972206E0
4.104566700E-1,-2.035095692E0,1.323829174E0,9.315258980E0
4.129474510E-1,-2.015953064E0,1.271187067E0,9.281759262E0
4.154382840E-1,-1.977667928E0,1.213759303E0,9.224330902E0
4.179290650E-1,-1.948953986E0,1.170688510E0,9.022735596E0
4.201107320E-1,-1.886740685E0,1.036690354E0,8.826524734E0
4.226015130E-1,-1.910668850E0,1.046261668E0,8.539385796E0
4.250922950E-1,-1.915454507E0,9.164510965E-1,8.285148621E0
4.275830760E-1,-1.896311998E0,8.638089895E-1,8.036294937E0
4.300738570E-1,-1.862214208E0,7.441678643E-1,7.796414375E0
4.325646380E-1,-1.929811478E0,6.867401004E-1,7.662416458E0
4.350553670E-1,-1.948953986E0,6.628118753E-1,7.518846989E0
4.375461490E-1,-1.915454507E0,6.340979934E-1,7.490133286E0
4.400369820E-1,-1.891526341E0,5.479564071E-1,7.456633568E0
4.425277110E-1,-1.944168448E0,5.048855543E-1,7.360322475E0
4.450185450E-1,-2.049452543E0,5.479564071E-1,7.350750923E0
4.475092740E-1,-2.063809633E0,5.288137794E-1,7.350750923E0
4.496910450E-1,-2.082952023E0,5.288137794E-1,7.384250641E0
4.521817740E-1,-2.092523336E0,5.000999570E-1,7.389036179E0
4.546725550E-1,-2.126022816E0,5.431707501E-1,7.494918823E0
4.571633360E-1,-2.130808592E0,5.383850932E-1,7.657630444E0
4.596541170E-1,-2.082952023E0,5.335994363E-1,7.825128078E0
4.621448470E-1,-2.092523336E0,6.436693072E-1,7.920841217E0
4.646356800E-1,-2.015953064E0,7.154539824E-1,8.065009117E0
4.671264090E-1,-1.963310957E0,7.728816867E-1,8.328219414E0
4.696172420E-1,-1.862214208E0,8.303094506E-1,8.711668968E0
4.721079720E-1,-1.689931035E0,8.446664214E-1,9.138189316E0
4.745987530E-1,-1.445863128E0,8.255237937E-1,9.415757179E0
4.770895860E-1,-1.239482164E0,7.920243144E-1,9.626923561E0
4.792713570E-1,-1.038485050E0,8.255237937E-1,9.765707016E0
4.817620860E-1,-8.518448472E-1,7.728816867E-1,9.971489906E0
4.842528670E-1,-6.837490797E-1,7.441678643E-1,1.021615601E1
4.867436490E-1,-6.981059909E-1,4.331009090E-1,1.047458076E1
4.892344300E-1,-5.832505226E-1,3.559323549E-1,1.046500969E1
4.917251590E-1,-3.248256743E-1,3.272185028E-1,1.048893833E1
4.942159920E-1,-8.973085135E-2,2.602194548E-1,1.051286602E1
4.967067740E-1,4.426721856E-2,2.027917206E-1,1.032144070E1
4.991975550E-1,3.080759048E-1,1.788634956E-1,1.029272652E1
5.016882840E-1,5.425725579E-1,1.262213886E-1,1.026401234E1
5.041790650E-1,7.339983582E-1,1.070788130E-1,1.009113121E1
5.066698470E-1,1.016949654E0,4.486542568E-2,1.002891827E1
5.088516170E-1,1.419542074E0,-6.041877344E-2,1.008156013E1
5.113423990E-1,1.749751568E0,-2.667997181E-1,1.015872860E1
5.138332320E-1,1.874776483E0,-4.103690982E-1,1.008156013E1
5.163239610E-1,1.946561217E0,-5.970092416E-1,9.961918831E0
5.188147420E-1,2.066202402E0,-7.459624410E-1,9.971489906E0
5.213055240E-1,2.104487419E0,-9.517452121E-1,9.952347755E0
5.237963050E-1,2.252842426E0,-1.171884894E0,9.933204651E0
5.262870860E-1,2.444866419E0,-1.383051515E0,9.923633575E0
5.287778670E-1,2.425724030E0,-1.761715651E0,1.016829967E1
5.312685970E-1,2.157129526E0,-2.182852507E0,1.057029438E1
5.337593780E-1,1.941775560E0,-2.446661234E0,1.085803127E1
5.362501590E-1,1.826321840E0,-2.700300455E0,1.092024422E1
5.384328150E-1,1.725823283E0,-2.911466837E0,1.103988552E1
5.409184920E-1,1.658824325E0,-3.150749207E0,1.114516926E1
5.434041700E-1,1.677966833E0,-3.327818155E0,1.129412270E1
5.458898470E-1,1.701895118E0,-3.419343472E0,1.136590767E1
5.483755760E-1,1.697109461E0,-3.476771355E0,1.138983536E1
5.508612530E-1,1.625324726E0,-3.414557934E0,1.154297638E1
5.533469300E-1,1.558325768E0,-3.189034462E0,1.182592773E1
5.558326070E-1,1.376471281E0,-2.921038151E0,1.222792149E1
5.583183360E-1,1.237089276E0,-2.604587555E0,1.261137199E1
5.608040130E-1,1.174875975E0,-2.350948334E0,1.288953781E1
5.632896900E-1,1.155733347E0,-2.206780672E0,1.300917816E1
5.657753670E-1,1.256231904E0,-2.101496458E0,1.295653629E1
5.680130760E-1,1.376471281E0,-2.144567251E0,1.269272804E1
5.704987530E-1,1.433898926E0,-2.149353027E0,1.254437256E1
5.729844300E-1,1.376471281E0,-2.144567251E0,1.250608730E1
5.754701590E-1,1.289731383E0,-2.034497499E0,1.234337521E1
5.779558360E-1,1.146162033E0,-1.919641972E0,1.218006516E1
5.804415130E-1,9.930213690E-1,-1.800000787E0,1.194078350E1
5.829271900E-1,8.733802438E-1,-1.679761529E0,1.165304661E1
5.854128670E-1,7.531409264E-1,-1.478764415E0,1.131326580E1
5.878985450E-1,6.813562512E-1,-1.249053478E0,1.096810055E1
5.903842740E-1,7.435696125E-1,-9.996016622E-1,1.069531918E1
5.928699510E-1,8.207381964E-1,-8.943174481E-1,1.054636574E1
5.953556280E-1,1.069591761E0,-7.986045480E-1,1.049850941E1
5.975933880E-1,1.265803218E0,-6.981059909E-1,1.025922680E1
6.000790650E-1,1.467398524E0,-5.970092416E-1,1.010070229E1
6.025647420E-1,1.697109461E0,-4.486542344E-1,9.818349838E0
6.050504720E-1,1.879562140E0,-3.242274821E-1,9.511469841E0
6.075361490E-1,1.975275040E0,-1.423729509E-1,9.363115311E0
6.100218260E-1,2.118844509E0,2.572284266E-2,9.133403778E0
6.125075030E-1,2.257628202E0,1.501496136E-1,8.955737114E0
6.149931800E-1,2.334198475E0,2.650051117E-1,8.869595528E0
6.174789090E-1,2.382055044E0,2.937189937E-1,8.793025017E0
6.199645860E-1,2.554936409E0,2.554338276E-1,8.160721779E0
6.224502630E-1,2.799004316E0,1.405783296E-1,7.590631485E0
6.249359400E-1,2.976671457E0,1.549352705E-1,7.796414375E0
6.271736490E-1,3.120240688E0,1.884347796E-1,8.237292290E0
6.296593260E-1,3.163311481E0,2.889333367E-1,8.385646820E0
6.321450030E-1,3.153740168E0,4.331009090E-1,8.337790489E0
6.346306800E-1,3.192025423E0,5.910272002E-1,8.510671616E0
6.371164090E-1,3.268595695E0,6.484549642E-1,8.831310272E0
6.396020860E-1,3.383451223E0,6.532405615E-1,8.840881348E0
6.420877630E-1,3.518047571E0,6.340979934E-1,8.582456589E0
6.445734400E-1,3.675973892E0,7.393822074E-1,8.471788406E0
6.470591170E-1,3.699902058E0,6.771687865E-1,8.745168686E0
6.495447950E-1,3.671188116E0,7.154539824E-1,9.095118523E0
6.520305240E-1,3.666402578E0,7.345965505E-1,9.320044518E0
6.545162010E-1,3.647259951E0,7.202396393E-1,9.253045082E0
6.567539610E-1,3.599403381E0,6.628118753E-1,9.052047729E0
6.592396380E-1,3.541975737E0,5.240281820E-1,9.229117393E0
6.617253150E-1,3.513261795E0,3.272185028E-1,9.281759262E0
6.642109920E-1,3.479762316E0,2.075773627E-1,9.262616158E0
6.666967220E-1,3.421736479E0,6.580262445E-3,9.482755661E0
6.691823990E-1,3.436093330E0,-1.950150430E-1,9.544969559E0
6.716680760E-1,3.527618885E0,-4.630111754E-1,9.415757179E0
6.741537530E-1,3.618546009E0,-5.682953596E-1,9.027522087E0
6.766394300E-1,3.604189157E0,-6.257231236E-1,9.071190834E0
6.791251070E-1,3.656831264E0,-7.698906660E-1,9.186046600E0
6.816108360E-1,3.728615999E0,-9.230313301E-1,9.138189316E0
6.840965130E-1,3.695116282E0,-1.009172916E0,9.075976372E0
6.863342740E-1,3.671188116E0,-1.138385415E0,9.272188187E0
6.888199510E-1,3.685544968E0,-1.220339537E0,9.281759262E0
6.913056280E-1,3.661616802E0,-1.363908887E0,9.406186104E0
6.937913050E-1,3.637688637E0,-1.454836130E0,9.492327690E0
6.962770340E-1,3.680759430E0,-1.617548108E0,9.511469841E0
6.987627110E-1,3.786043644E0,-1.747358680E0,9.506684303E0
7.012483880E-1,3.848257065E0,-1.886142492E0,9.406186104E0
7.037340650E-1,3.953541279E0,-1.996212244E0,9.372686386E0
7.062197420E-1,3.991826296E0,-2.125424623E0,9.454042435E0
7.087054200E-1,4.045066833E0,-2.327019930E0,9.482755661E0
7.111911490E-1,4.236492634E0,-2.446661234E0,9.343972206E0
7.136768260E-1,4.461417675E0,-2.518445730E0,9.133403778E0
7.159145340E-1,4.634299278E0,-2.647658348E0,9.085547447E0
7.184002110E-1,4.744369030E0,-2.724228621E0,9.052047729E0
7.208858880E-1,4.844867706E0,-2.805584431E0,8.974879265E0
7.233715650E-1,4.921437740E0,-2.820539713E0,8.836095810E0
7.258572950E-1,4.921437740E0,-2.834896564E0,8.745168686E0
7.283429720E-1,4.892724037E0,-2.825325251E0,8.697312355E0
7.308286490E-1,4.854438782E0,-2.757728100E0,8.529814720E0
7.333143260E-1,4.753940582E0,-2.695514679E0,8.419146538E0
7.358000030E-1,4.562514782E0,-2.623729944E0,8.371290207E0
7.382856800E-1,4.442275047E0,-2.494517565E0,8.227720261E0
7.407714090E-1,4.360919476E0,-2.370090723E0,8.093722343E0
7.432570860E-1,4.293920040E0,-2.336591244E0,7.959126472E0
7.454948470E-1,4.313062668E0,-2.303091764E0,7.805985451E0
7.479805240E-1,4.470989227E0,-2.249851465E0,7.758129120E0
7.504662010E-1,4.749154568E0,-2.187638044E0,8.232506752E0
7.529518780E-1,5.031507969E0,-2.053640127E0,9.071190834E0
7.554376070E-1,5.002793789E0,-1.809572101E0,9.650852203E0
7.579232840E-1,4.797011375E0,-1.795215130E0,9.544969559E0
7.604089610E-1,4.619942188E0,-2.000998020E0,8.879166603E0
7.628946380E-1,4.427918434E0,-2.216351986E0,8.108079910E0
7.653803670E-1,4.035495281E0,-2.331805706E0,7.466204643E0
7.678659920E-1,3.680759430E0,-2.327019930E0,6.996613503E0
7.703517220E-1,3.402593851E0,-2.389233351E0,6.704091072E0
7.728373990E-1,3.225524902E0,-2.403590441E0,6.402595043E0
7.750751590E-1,3.019742250E0,-2.441875458E0,6.263213158E0
7.775608360E-1,2.813361168E0,-2.446661234E0,6.224927902E0
7.800465130E-1,2.636292458E0,-2.523231506E0,6.162714481E0
7.825321900E-1,2.386840582E0,-2.532802820E0,6.153143406E0
7.850179200E-1,2.204986095E0,-2.628515720E0,6.215356827E0
7.875035970E-1,2.003988981E0,-2.690729141E0,6.258427620E0
7.899892740E-1,1.855035782E0,-2.762513638E0,6.114858150E0
7.924749510E-1,1.768894196E0,-2.954537868E0,5.909075737E0
7.949606280E-1,1.783251047E0,-3.150749207E0,5.764907837E0
7.974463050E-1,1.788036704E0,-3.323032379E0,5.573482037E0
7.999320340E-1,1.759322882E0,-3.476771355E0,5.396413326E0
8.024177110E-1,1.768894196E0,-3.605983734E0,5.372485161E0
8.046554720E-1,1.797608018E0,-3.730410576E0,5.348556995E0
8.071411490E-1,1.807179332E0,-3.773481369E0,5.329414368E0
8.096268260E-1,1.845464468E0,-3.830909014E0,5.353342533E0
8.121125030E-1,1.850250125E0,-3.888935089E0,5.305486202E0
8.145982320E-1,1.893919110E0,-3.917648792E0,5.334199905E0
8.170839090E-1,2.008774519E0,-3.859622955E0,5.420341492E0
8.195695860E-1,2.094916344E0,-3.768695593E0,5.492125988E0
8.220552630E-1,2.157129526E0,-3.701696634E0,5.664409637E0
8.245409920E-1,2.295913219E0,-3.682554007E0,5.846862316E0
8.270266170E-1,2.377269268E0,-3.610769272E0,5.995217323E0
8.295123470E-1,2.483151674E0,-3.481556892E0,6.138786316E0
8.319980240E-1,2.626721144E0,-3.476771355E0,6.220142365E0
8.342357840E-1,2.732005358E0,-3.404986620E0,6.330212116E0
8.367214610E-1,2.832503796E0,-3.308675528E0,6.311069489E0
8.392071380E-1,2.947957516E0,-3.246462107E0,6.287141323E0
8.416928150E-1,3.105883837E0,-3.184248686E0,6.200999737E0
8.441785450E-1,3.340380430E0,-3.155534744E0,6.009573936E0
8.466642220E-1,3.565903902E0,-3.165106058E0,5.803193092E0
8.491498990E-1,3.728615999E0,-3.050250769E0,5.592624664E0
8.516355760E-1,3.910470486E0,-2.973680258E0,5.280959606E0
8.541213050E-1,4.030709743E0,-2.844467878E0,5.027320385E0
8.566069300E-1,4.112065792E0,-2.762513638E0,4.749154568E0
8.590926590E-1,4.107280254E0,-2.681157827E0,4.572085857E0
8.615783360E-1,4.059423447E0,-2.575873613E0,4.442873478E0
