"Time (s)","Acceleration x (m/s^2)","Acceleration y (m/s^2)","Acceleration z (m/s^2)"
2.170304900E-2,7.490731239E0,1.305284786E1,3.830909014E0
2.408086200E-2,7.464410305E0,1.353081417E1,3.815953970E0
2.645867400E-2,7.490133286E0,1.406022549E1,3.760919094E0
2.883648700E-2,7.418946743E0,1.459861088E1,3.658625841E0
3.121424700E-2,7.305287361E0,1.511187172E1,3.504288673E0
3.359206000E-2,7.067800045E0,1.560479259E1,3.288934708E0
3.596987200E-2,6.805785656E0,1.600678635E1,2.968296528E0
3.834768500E-2,6.452246189E0,1.631665802E1,2.477767944E0
4.072549700E-2,5.936593056E0,1.652543068E1,1.950748682E0
4.310325800E-2,5.411966801E0,1.665883064E1,1.424925923E0
4.548107000E-2,4.878366947E0,1.670668793E1,9.385846853E-1
4.785888300E-2,4.393820763E0,1.661875153E1,4.630111754E-1
5.023669500E-2,3.947559118E0,1.650269890E1,5.024927482E-2
5.261450800E-2,3.483351469E0,1.631127357E1,-3.332005441E-1
5.499226800E-2,3.063411236E0,1.605524254E1,-5.856433511E-1
5.737008100E-2,2.652443886E0,1.577109432E1,-8.243274093E-1
5.974789300E-2,2.348555326E0,1.540798283E1,-9.661021233E-1
6.212570600E-2,2.059023857E0,1.509272861E1,-1.074975610E0
6.450346600E-2,1.816750646E0,1.477867126E1,-1.131805062E0
6.688127900E-2,1.628913999E0,1.438505173E1,-1.039681435E0
6.925909100E-2,1.455434322E0,1.395912933E1,-9.798609018E-1
7.163690400E-2,1.320838094E0,1.348594856E1,-8.823533654E-1
7.401471600E-2,1.237687469E0,1.298405361E1,-8.321040869E-1
7.639252900E-2,1.197607756E0,1.246361542E1,-8.542376757E-1
7.877028900E-2,1.080957651E0,1.190788174E1,-9.134600163E-1
8.114810100E-2,1.022333503E0,1.138863945E1,-8.249256015E-1
8.352591400E-2,1.120439172E0,1.107278633E1,-7.208378315E-1
8.590372600E-2,1.347757339E0,1.099741268E1,-3.523431420E-1
8.828148700E-2,1.470389485E0,1.115055370E1,1.585244983E-1
9.065929900E-2,1.516451359E0,1.133599758E1,6.305087805E-1
9.303711200E-2,1.407577872E0,1.159801102E1,8.542376757E-1
9.541492400E-2,1.359123230E0,1.183011532E1,9.188438654E-1
9.779273700E-2,1.514656782E0,1.197667599E1,8.291130662E-1
1.001704970E-1,1.745564103E0,1.227458191E1,6.987041831E-1
1.025483100E-1,2.011167526E0,1.256530952E1,6.981059909E-1
1.049261220E-1,2.232503414E0,1.289312649E1,1.177268744E0
1.073039350E-1,2.296511650E0,1.313958740E1,2.070987940E0
1.096817470E-1,2.156531334E0,1.321914864E1,2.977269650E0
1.120595080E-1,1.942971945E0,1.319163132E1,3.607778311E0
1.144373200E-1,1.727019787E0,1.310010624E1,4.013361931E0
1.168151330E-1,1.505683661E0,1.289193058E1,4.132404804E0
1.191929450E-1,1.247856975E0,1.265145111E1,3.892524242E0
1.215707060E-1,1.025324464E0,1.240798187E1,3.407977581E0
1.239485180E-1,8.075776696E-1,1.216810131E1,2.831905603E0
1.263263310E-1,5.970092416E-1,1.202752304E1,2.173281193E0
1.287041430E-1,6.406782866E-1,1.186600780E1,1.594218135E0
1.310819560E-1,7.704889178E-1,1.157587814E1,9.403793216E-1
1.334597160E-1,7.405785918E-1,1.134018517E1,1.561316848E-1
1.358375290E-1,5.826523304E-1,1.109432220E1,-5.928218365E-1
1.382153410E-1,4.402793646E-1,1.089332485E1,-1.207777262E0
1.405931540E-1,3.613162339E-1,1.073240757E1,-1.603789330E0
1.429709660E-1,2.350948304E-1,1.054277611E1,-2.017747641E0
1.453354970E-1,1.615155339E-1,1.034477043E1,-2.350350142E0
1.477265390E-1,-3.529413417E-2,1.016530895E1,-2.673381090E0
1.501043510E-1,-7.836493850E-2,1.011266708E1,-2.687139750E0
1.524688830E-1,-1.441675574E-1,1.009412193E1,-2.623729944E0
1.548599760E-1,-2.697907388E-1,1.002054310E1,-2.285743713E0
1.572377370E-1,-3.942175210E-1,9.929615974E0,-1.895713687E0
1.596155490E-1,-4.666004181E-1,9.857831001E0,-1.448255897E0
1.619933620E-1,-5.617151260E-1,9.759127617E0,-9.278169870E-1
1.643711740E-1,-5.766702294E-1,9.677771568E0,-5.192425251E-1
1.667489350E-1,-6.167500615E-1,9.562317848E0,-2.626122832E-1
1.691267470E-1,-5.856433511E-1,9.437292099E0,-2.632104978E-2
1.715045600E-1,-5.258227587E-1,9.278169632E0,1.381855011E-1
1.738823720E-1,-4.187439680E-1,9.162715912E0,3.068794906E-1
1.762601850E-1,-3.577269912E-1,9.005388260E0,6.346961856E-1
1.786379970E-1,-3.954139352E-1,8.810971260E0,1.107876897E0
1.810025290E-1,-3.816552162E-1,8.564510345E0,1.465603828E0
1.833935700E-1,-3.643072546E-1,8.315656662E0,1.636690736E0
1.857713830E-1,-2.955136001E-1,8.109275818E0,1.787438512E0
1.881359140E-1,-2.428714931E-1,7.986643791E0,1.769492388E0
1.905269560E-1,-1.405783296E-1,7.828119278E0,1.899901152E0
1.929047680E-1,-5.383851007E-2,7.667201996E0,1.944766641E0
1.952825810E-1,2.811566554E-2,7.536194801E0,2.003988981E0
1.976603930E-1,4.366901144E-2,7.356733322E0,2.048854351E0
2.000382060E-1,6.340979785E-2,7.181458950E0,2.012962103E0
2.024159660E-1,4.486542568E-2,7.048657417E0,1.951945066E0
2.047937790E-1,4.067798331E-2,6.921239376E0,1.987239242E0
2.071715910E-1,-9.092725813E-2,6.803392887E0,2.114656925E0
2.095494040E-1,-1.088734269E-1,6.656234264E0,2.121237278E0
2.119272160E-1,-4.247260094E-2,6.546762943E0,2.011765718E0
2.143049760E-1,4.725824669E-2,6.427719593E0,1.897508383E0
2.166827890E-1,1.752742529E-1,6.256632805E0,1.725823283E0
2.190606010E-1,4.115654826E-1,6.136991978E0,1.476371527E0
2.214384140E-1,6.293123364E-1,5.983253002E0,1.250848055E0
2.238162260E-1,8.715856671E-1,5.859424591E0,1.016351461E0
2.261939870E-1,1.179661512E0,5.740381718E0,7.657032609E-1
2.285717990E-1,1.450050473E0,5.636293888E0,6.113662124E-1
2.309496120E-1,1.682154298E0,5.530411243E0,3.810569942E-1
2.333274240E-1,1.905285001E0,5.473581791E0,2.075773627E-1
2.357051850E-1,2.090130568E0,5.383252621E0,8.315058798E-2
2.380829970E-1,2.227119684E0,5.344967365E0,-5.144568533E-2
2.404608100E-1,2.321636200E0,5.287539959E0,-1.615155339E-1
2.428386220E-1,2.411366940E0,5.248656273E0,-3.062812984E-1
2.452164350E-1,2.505285263E0,5.228915691E0,-4.313062727E-1
2.475942470E-1,2.481357098E0,5.209175110E0,-4.791627228E-1
2.499720080E-1,2.513660192E0,5.170291424E0,-5.988038778E-1
2.523498200E-1,2.579462767E0,5.093721390E0,-7.369893789E-1
2.547276330E-1,2.602792740E0,5.054837704E0,-8.374879360E-1
2.571054450E-1,2.725425005E0,5.006382942E0,-1.015154958E0
2.594832060E-1,2.753540754E0,4.954339504E0,-1.071984529E0
2.618610180E-1,2.724826813E0,4.797011375E0,-1.151545882E0
2.642388310E-1,2.638685226E0,4.643870354E0,-1.302293777E0
2.666166430E-1,2.515454769E0,4.557728767E0,-1.300499082E0
2.689944560E-1,2.429313183E0,4.456632137E0,-1.423729420E0
2.713722160E-1,2.353341103E0,4.332205296E0,-1.474576950E0
2.737500290E-1,2.362314224E0,4.198207378E0,-1.593021631E0
2.761278410E-1,2.409572363E0,4.083950043E0,-1.725823283E0
2.785056540E-1,2.600998163E0,3.829114437E0,-1.747956991E0
2.808834660E-1,2.582453728E0,3.820141315E0,-1.728814363E0
2.832612260E-1,2.306680918E0,3.870988846E0,-1.640878081E0
2.856390390E-1,2.106880426E0,3.836891174E0,-1.615155339E0
2.880168510E-1,2.009970903E0,3.796213150E0,-1.839482427E0
2.903946640E-1,1.942373753E0,3.728017569E0,-1.996212244E0
2.927724760E-1,1.956730723E0,3.651447296E0,-2.057827473E0
2.951502370E-1,1.960918188E0,3.594019651E0,-2.138585329E0
2.975280490E-1,1.904686809E0,3.533002615E0,-2.060818434E0
2.999058620E-1,2.018944025E0,3.543172121E0,-2.071586132E0
3.022836740E-1,2.213959217E0,3.558127165E0,-2.087139606E0
3.046614870E-1,2.114058733E0,3.505485058E0,-2.109871387E0
3.070392470E-1,1.880160451E0,3.484548092E0,-2.170290232E0
3.094170600E-1,1.803590059E0,3.527020693E0,-2.127219439E0
3.117948720E-1,1.679163337E0,3.483351469E0,-2.193022013E0
3.141726850E-1,1.578664780E0,3.463012457E0,-2.268994093E0
3.165504970E-1,1.440479279E0,3.489931822E0,-2.306680918E0
3.189282580E-1,1.523629785E0,3.559323788E0,-2.514258385E0
3.213060700E-1,1.674377680E0,3.548556089E0,-2.712264538E0
3.236838830E-1,1.426122308E0,3.455834150E0,-2.828914642E0
3.260616950E-1,1.268195987E0,3.458226919E0,-2.981456995E0
3.284395080E-1,1.138983607E0,3.395415306E0,-3.037688255E0
3.308172680E-1,1.070788145E0,3.354737282E0,-3.247658491E0
3.331950810E-1,9.840483069E-1,3.329014540E0,-3.414557934E0
3.355728930E-1,9.361918569E-1,3.294318676E0,-3.433102369E0
3.379507060E-1,9.110672474E-1,3.283550978E0,-3.581457376E0
3.403285180E-1,8.811569214E-1,3.257229805E0,-3.777668715E0
3.427062790E-1,7.944171429E-1,3.203391314E0,-3.934996843E0
3.450840910E-1,7.495517135E-1,3.186641455E0,-4.130609989E0
3.474619040E-1,7.585247755E-1,3.138186932E0,-4.264608383E0
3.498397160E-1,8.093722463E-1,3.145963669E0,-4.442275047E0
3.522175290E-1,9.882357717E-1,3.173480988E0,-4.640281200E0
3.545952890E-1,9.924231768E-1,3.153141975E0,-4.750350952E0
3.569731010E-1,6.855437160E-1,3.092723370E0,-4.935196877E0
3.593509140E-1,5.030909777E-1,3.094517946E0,-5.092525005E0
3.617287260E-1,5.156532526E-1,3.125624657E0,-5.270191669E0
3.641065390E-1,4.797609448E-1,3.189034462E0,-5.515456200E0
3.664842990E-1,4.929214716E-1,3.230310678E0,-5.650052547E0
3.688621120E-1,5.718846321E-1,3.290729284E0,-5.824130535E0
3.712399240E-1,6.412764788E-1,3.394218922E0,-5.985047817E0
3.736177370E-1,6.879364848E-1,3.506681681E0,-6.072983742E0
3.759954970E-1,7.674978375E-1,3.643072367E0,-6.223731518E0
3.783733100E-1,7.704889178E-1,3.731606960E0,-6.320641041E0
3.807511220E-1,7.417750359E-1,3.826123476E0,-6.312266350E0
3.831289350E-1,6.783652306E-1,3.976871252E0,-6.357131481E0
3.855067470E-1,7.208378315E-1,4.109673023E0,-6.363711834E0
3.878845080E-1,7.573283911E-1,4.283750534E0,-6.442675114E0
3.902623200E-1,7.698906660E-1,4.596612453E0,-6.432505608E0
3.926401330E-1,7.166503668E-1,4.961517811E0,-6.350551128E0
3.950047160E-1,5.653043389E-1,5.385645390E0,-6.412166595E0
3.973957580E-1,4.875376225E-1,5.873183250E0,-6.360122681E0
3.997735180E-1,4.660021961E-1,6.379863262E0,-6.323632240E0
4.021381010E-1,4.492524564E-1,6.905087948E0,-6.325426579E0
4.045291430E-1,4.043870270E-1,7.421339512E0,-6.259624004E0
4.069069560E-1,3.732803464E-1,7.980063438E0,-6.223133564E0
4.092714870E-1,2.859423161E-1,8.553742409E0,-6.071787357E0
4.116625810E-1,2.081755698E-1,9.094520569E0,-5.905486107E0
4.140403410E-1,1.914258152E-1,9.681360245E0,-5.854638577E0
4.164049240E-1,2.715853751E-1,1.031007481E1,-5.541777134E0
4.187959660E-1,5.766702294E-1,1.067856884E1,-5.322834015E0
4.211737790E-1,3.224328458E-1,1.148973656E1,-5.020142078E0
4.235383100E-1,5.503492057E-2,1.228714466E1,-4.643870354E0
4.259293510E-1,-7.178468257E-2,1.312044430E1,-4.524229527E0
4.283071640E-1,-1.794617027E-1,1.395434380E1,-4.347160339E0
4.306716950E-1,-2.536391914E-1,1.481755447E1,-4.165306091E0
4.330627890E-1,-2.865405083E-1,1.569751453E1,-4.162314892E0
4.354405490E-1,-1.429711580E-1,1.646501350E1,-4.138985157E0
4.378051330E-1,3.589233849E-3,1.723490334E1,-4.351347923E0
4.401961740E-1,2.153540403E-1,1.799881172E1,-4.770092010E0
4.425739870E-1,4.570291340E-1,1.865504265E1,-5.044070244E0
4.449385180E-1,7.561319470E-1,1.928256035E1,-5.399404526E0
4.473296120E-1,1.027119160E0,1.981556320E1,-5.666802406E0
4.497073720E-1,1.389631748E0,2.020918274E1,-5.885147095E0
4.520719560E-1,1.795215130E0,2.045384789E1,-6.198606968E0
4.544629970E-1,2.197209358E0,2.051905251E1,-6.533003807E0
4.568408100E-1,2.513660192E0,2.053699875E1,-6.847062111E0
4.592053410E-1,2.655434847E0,2.031745720E1,-7.109674454E0
4.615963830E-1,2.831905603E0,1.981855392E1,-7.348956585E0
4.639741950E-1,2.932404041E0,1.915873337E1,-7.662416458E0
4.663387260E-1,2.863610506E0,1.827518272E1,-7.919644833E0
4.687298200E-1,2.637488842E0,1.723908997E1,-8.202595711E0
4.711075810E-1,2.364108801E0,1.615933037E1,-8.532207489E0
4.734721640E-1,2.139183521E0,1.508614826E1,-8.766703606E0
4.758632060E-1,2.008774519E0,1.404108334E1,-9.049654961E0
4.782410180E-1,1.864607096E0,1.305882931E1,-9.195018768E0
4.806055490E-1,1.782652855E0,1.212503052E1,-9.273982048E0
4.829965910E-1,1.695913076E0,1.132463169E1,-9.349954605E0
4.853744040E-1,1.627717614E0,1.060439205E1,-9.354740143E0
4.877389870E-1,1.612164259E0,9.923035622E0,-9.345767021E0
4.901300290E-1,1.663609982E0,9.394221306E0,-9.272188187E0
4.925078410E-1,1.505683661E0,8.892925262E0,-9.105886459E0
4.948723720E-1,1.350748420E0,8.519644737E0,-9.028717995E0
4.972634140E-1,1.214357495E0,8.286943436E0,-9.024530411E0
4.996412260E-1,1.219143152E0,8.167900085E0,-9.080761909E0
5.020057580E-1,1.046261668E0,8.241478920E0,-9.214759827E0
5.043968510E-1,1.005583763E0,8.490332603E0,-9.318847656E0
5.067746640E-1,1.064806104E0,8.896514893E0,-9.415757179E0
5.091524240E-1,1.337587833E0,9.466006279E0,-9.472586632E0
5.115302370E-1,1.826321840E0,1.020419216E1,-9.297910690E0
5.139080490E-1,2.346760750E0,1.118465137E1,-9.097511292E0
5.162725810E-1,2.614757061E0,1.243968678E1,-8.736195564E0
5.186636740E-1,2.911466837E0,1.368515110E1,-8.365905762E0
5.210414350E-1,3.194418192E0,1.496770382E1,-8.038089752E0
5.234060180E-1,3.449851990E0,1.624367714E1,-7.485347271E0
5.257970600E-1,3.821935892E0,1.735633850E1,-6.714858532E0
5.281748720E-1,4.140181541E0,1.827219200E1,-5.802595139E0
5.305394040E-1,4.594219685E0,1.902533340E1,-4.644468784E0
5.329304450E-1,5.697310925E0,1.955534363E1,-3.497708559E0
5.353082580E-1,7.325626373E0,1.974258232E1,-2.374278307E0
5.376727890E-1,8.708678246E0,1.965464592E1,-1.221535921E0
5.400638830E-1,9.753145218E0,1.948894310E1,-4.127619043E-2
5.424416430E-1,1.036750221E1,1.922932053E1,1.420738459E0
5.448062260E-1,1.075872898E1,1.883510399E1,2.886342287E0
5.471972680E-1,1.064387321E1,1.829911041E1,4.184448719E0
5.495750810E-1,1.018146038E1,1.746521187E1,5.248656273E0
5.519396120E-1,9.454042435E0,1.633639908E1,5.882156372E0
5.543306540E-1,8.419146538E0,1.488335705E1,5.979663849E0
5.567084660E-1,7.152745247E0,1.319163132E1,5.649454117E0
5.590730490E-1,5.880361557E0,1.146520996E1,5.084748268E0
5.614640910E-1,4.616951466E0,9.775876999E0,4.529613495E0
5.638419040E-1,4.027718544E0,8.293522835E0,3.851846218E0
5.662064350E-1,3.751945972E0,6.873981476E0,3.099901676E0
5.685974760E-1,3.473780155E0,5.608178139E0,2.133799553E0
5.709752890E-1,3.221935749E0,4.405186653E0,9.080761671E-1
5.733398720E-1,2.735594511E0,3.258426189E0,-2.931207716E-1
5.757309140E-1,2.316252232E0,2.188236237E0,-1.499701619E0
5.781087260E-1,1.958525300E0,1.217348576E0,-2.723032236E0
5.804732580E-1,1.410568953E0,2.793620527E-1,-3.796213150E0
5.828642990E-1,9.014959335E-1,-5.431707501E-1,-4.736592293E0
5.852421120E-1,4.073780477E-1,-1.274178028E0,-5.549553871E0
5.876066430E-1,-7.058826834E-2,-1.893320918E0,-6.134000778E0
5.899977370E-1,-5.359922647E-1,-2.338385820E0,-6.743572235E0
5.923754970E-1,-1.284945726E0,-2.635095835E0,-7.070790768E0
5.947400810E-1,-1.563709617E0,-2.770888567E0,-6.817749977E0
5.971311220E-1,-1.131206870E0,-2.682952404E0,-6.356533527E0
5.995089350E-1,-6.125625968E-1,-2.370090723E0,-5.691926956E0
6.018734660E-1,-1.746760458E-1,-1.957328916E0,-4.990231514E0
6.042645080E-1,2.386840582E-1,-1.426720500E0,-4.232305050E0
6.066423200E-1,4.283152521E-1,-8.632107973E-1,-3.439084291E0
6.090201330E-1,5.162515044E-1,-2.602194548E-1,-2.828914642E0
6.113979450E-1,5.611169338E-1,4.426721931E-1,-2.204387903E0
6.137757580E-1,4.516452849E-1,1.280160069E0,-1.696511269E0
6.161402890E-1,1.357926875E-1,2.290529490E0,-1.293918848E0
6.185313310E-1,-2.709871531E-1,3.424129248E0,-8.500502706E-1
6.209091430E-1,-5.898307562E-1,4.593023300E0,-6.424728632E-1
6.232736740E-1,-8.859425783E-1,5.855835438E0,-5.413761139E-1
6.256647680E-1,-1.153340459E0,7.109076023E0,-4.594219327E-1
6.280425290E-1,-1.274178028E0,8.319844246E0,-4.642075896E-1
6.304071120E-1,-1.345962763E0,9.507881165E0,-3.876372576E-1
6.327981540E-1,-1.307677627E0,1.064088249E1,-1.812563092E-1
6.351759660E-1,-1.299900889E0,1.167637634E1,1.752742529E-1
6.375404970E-1,-1.318445325E0,1.262931824E1,7.866404653E-1
6.399315390E-1,-1.389631748E0,1.354935837E1,1.408774376E0
6.423093510E-1,-1.515254974E0,1.438505173E1,2.229512453E0
6.446739350E-1,-1.715653777E0,1.500419426E1,3.153740168E0
6.470649760E-1,-1.760519266E0,1.550668716E1,3.718446493E0
6.494427890E-1,-1.530210137E0,1.584826279E1,4.100699902E0
6.518073200E-1,-1.213161111E0,1.593918991E1,4.481756687E0
6.541983620E-1,-9.290133715E-1,1.609651756E1,4.890331268E0
6.565761740E-1,-5.359922647E-1,1.621197128E1,5.288736343E0
6.589407060E-1,-2.859423161E-1,1.632084465E1,5.559723377E0
6.613317990E-1,-1.274178028E-1,1.644706726E1,5.801398277E0
6.637095600E-1,3.110669367E-2,1.647398567E1,5.992226124E0
6.660741430E-1,1.268195957E-1,1.651765442E1,6.048457623E0
6.684651850E-1,1.992024779E-1,1.651885033E1,6.138786316E0
6.708429970E-1,2.374876440E-1,1.645723534E1,6.115456581E0
6.732075290E-1,2.506481707E-1,1.636630821E1,5.977271080E0
6.755985700E-1,3.451646566E-1,1.614676666E1,5.754140377E0
6.779763830E-1,3.326023519E-1,1.587637806E1,5.229514122E0
6.803541950E-1,2.482553422E-1,1.554796314E1,4.677968502E0
6.827320080E-1,2.925225794E-1,1.509153271E1,4.001996040E0
6.851098200E-1,2.985046208E-1,1.456810284E1,3.270390272E0
6.874743510E-1,2.991028428E-1,1.392981720E1,2.424527645E0
6.898653930E-1,1.351944804E-1,1.325862980E1,1.258624673E0
6.922432060E-1,-1.274178028E-1,1.255514050E1,2.374876440E-1
6.946077370E-1,-4.689932466E-1,1.186301613E1,-1.042074203E0
6.969988310E-1,-7.746763229E-1,1.120678520E1,-2.077568293E0
6.993765910E-1,-9.948160052E-1,1.058824062E1,-3.104089260E0
7.017411740E-1,-1.085743308E0,1.000498962E1,-4.041477680E0
7.041322160E-1,-1.028315544E0,9.490532875E0,-4.875376225E0
7.065100290E-1,-7.609176040E-1,9.077771187E0,-5.600401402E0
7.088745600E-1,-4.546363056E-1,8.727820396E0,-6.135795593E0
7.112656540E-1,-1.166501045E-1,8.410173416E0,-6.436094761E0
7.136434140E-1,1.788634956E-1,8.136195183E0,-6.544968128E0
7.160079970E-1,4.097708762E-1,7.892725468E0,-6.442675114E0
7.183990390E-1,6.412764788E-1,7.669594765E0,-6.192026615E0
7.207768510E-1,8.225327730E-1,7.461419106E0,-5.825924873E0
7.231413830E-1,1.008574724E0,7.287939548E0,-5.331208706E0
7.255324240E-1,1.133001566E0,7.110272408E0,-4.802394867E0
7.279102370E-1,1.229312658E0,6.951149940E0,-4.239483356E0
7.302748200E-1,1.315454245E0,6.824928284E0,-3.715455294E0
7.326658620E-1,1.320838094E0,6.707680225E0,-3.176471949E0
7.350436740E-1,1.302293777E0,6.626922131E0,-2.662015200E0
7.374082060E-1,1.302891970E0,6.515058041E0,-2.103889227E0
7.397992470E-1,1.336989641E0,6.426523209E0,-1.532602906E0
7.421770600E-1,1.364507079E0,6.384050846E0,-1.109671474E0
7.445415910E-1,1.501496196E0,6.375077724E0,-6.885347366E-1
7.469326850E-1,1.417747378E0,6.277570248E0,-5.982056609E-4
7.493104450E-1,1.333998680E0,6.119045734E0,6.975077987E-1
7.516750290E-1,1.197009563E0,6.044270039E0,1.323230863E0
7.540660700E-1,1.106680512E0,6.016154289E0,1.851446509E0
7.564438830E-1,1.053440213E0,6.011368752E0,2.313261271E0
7.588084140E-1,1.161117196E0,6.101099491E0,2.690130949E0
7.611994560E-1,1.353739381E0,6.266204357E0,3.012563705E0
7.635772680E-1,1.616351724E0,6.445665836E0,3.234498024E0
7.659418510E-1,1.944168448E0,6.732206345E0,3.267399311E0
7.683328930E-1,2.180459738E0,7.069594383E0,3.266202927E0
7.707107060E-1,2.260020971E0,7.386643410E0,3.247060299E0
7.730752370E-1,2.245065928E0,7.657032490E0,3.325425386E0
7.754662790E-1,2.169093609E0,7.880761147E0,3.476173162E0
7.778440910E-1,2.049452543E0,8.118248940E0,3.594019651E0
7.802086740E-1,1.836491346E0,8.285148621E0,3.852444410E0
7.825997160E-1,1.590030670E0,8.494520187E0,4.124628067E0
7.849775290E-1,1.404586911E0,8.732007980E0,4.325026989E0
7.873420600E-1,1.304088354E0,8.974281311E0,4.432703972E0
7.897331010E-1,1.256231904E0,9.173483849E0,4.488337040E0
7.921109140E-1,1.231705427E0,9.409774780E0,4.528416634E0
7.944754450E-1,1.253839016E0,9.588638306E0,4.439882278E0
7.968665390E-1,1.289731383E0,9.767501831E0,4.331607342E0
7.992442990E-1,1.350150228E0,9.941579819E0,4.214358807E0
8.016088830E-1,1.351346612E0,1.009531879E1,3.918845177E0
8.039999240E-1,1.271785259E0,1.022393322E1,3.592225075E0
8.063777370E-1,1.071984529E0,1.034596729E1,3.193820000E0
8.087422680E-1,9.248259664E-1,1.047757244E1,2.755933523E0
8.111333100E-1,8.105686903E-1,1.061934662E1,2.318645239E0
8.135111220E-1,7.483552694E-1,1.073121166E1,1.775474429E0
8.158757060E-1,6.945167780E-1,1.083350468E1,1.184447169E0
8.182667470E-1,4.606183469E-1,1.089691448E1,6.000002623E-1
8.206445600E-1,3.230310604E-2,1.093639565E1,1.034895778E-1
8.230090910E-1,-5.198407173E-1,1.095194912E1,-2.961117923E-1
8.254001330E-1,-9.607182741E-1,1.094118118E1,-6.239284873E-1
8.277779450E-1,-1.252642632E0,1.092742252E1,-8.470591903E-1
