"Time (s)","X (rad/s)","Y (rad/s)","Z (rad/s)"
1.627146250E-1,-5.038609028E0,-1.321936607E0,-4.090252221E-1
1.727246250E-1,-4.771685123E0,-3.293762729E-2,2.385293692E-2
1.827036250E-1,-4.152143002E0,6.692274213E-1,5.331766605E-1
1.927135000E-1,-3.372349977E0,1.083289146E0,9.573011994E-1
2.027235000E-1,-2.555766821E0,1.355898023E0,1.160704613E0
2.127325000E-1,-1.902404666E0,1.501200318E0,1.211153150E0
2.227125000E-1,-1.492883444E0,1.343000054E0,1.237328768E0
2.327215000E-1,-1.264392614E0,8.769887686E-1,1.306252480E0
2.427315000E-1,-1.165424466E0,2.401643395E-1,1.369906068E0
2.527415000E-1,-1.026340604E0,-5.974268913E-1,1.412843347E0
2.627205000E-1,-7.567238212E-1,-1.411597013E0,1.392052770E0
2.727305000E-1,-2.413845062E-1,-1.815130591E0,1.317434311E0
2.827405000E-1,4.247384071E-1,-1.526671886E0,1.166723967E0
2.927495000E-1,9.938033223E-1,-8.155227900E-1,9.490548372E-1
3.027295000E-1,1.310009599E0,-1.151779890E-1,7.099439502E-1
3.127385000E-1,1.398929596E0,1.422606707E-1,4.822041988E-1
3.227485000E-1,1.339684129E0,1.717332378E-2,2.839459777E-1
3.327585000E-1,1.308766723E0,-4.740482867E-1,9.243279696E-2
3.427375000E-1,1.405748844E0,-1.154050231E0,-9.796989709E-2
3.527475000E-1,1.595685482E0,-1.711543798E0,-3.175592124E-1
3.627575000E-1,1.872229218E0,-2.176008224E0,-5.537152886E-1
3.727665000E-1,2.221887350E0,-2.685791969E0,-7.611193061E-1
3.827765000E-1,2.683994532E0,-3.274321318E0,-9.231947064E-1
3.927555000E-1,3.049542665E0,-1.591071486E0,-8.541198373E-1
4.027655000E-1,3.200021744E0,-1.582498670E0,-5.710761547E-1
4.127755000E-1,3.127079010E0,-1.216143370E0,-2.093703896E-1
4.227855000E-1,2.878189564E0,-2.537211478E-1,4.169699550E-2
4.327645000E-1,2.506976843E0,3.891863674E-2,7.792686671E-2
4.427745000E-1,2.067683220E0,-3.393756747E-1,-8.635368943E-2
4.527845000E-1,1.604618907E0,-9.460812807E-1,-4.645116031E-1
4.627935000E-1,1.141133308E0,-1.748550892E0,-1.087441206E0
4.727735000E-1,6.900588870E-1,-2.658740282E0,-1.841147900E0
4.827825000E-1,1.993307322E-1,-3.224684954E0,-2.456761360E0
4.927925000E-1,-3.020297885E-1,-3.170341253E0,-2.699869871E0
5.028025000E-1,-8.362024426E-1,-1.731899738E0,-2.340882778E0
5.127815000E-1,-2.314066648E0,1.620473146E0,-7.918801904E-1
5.227915000E-1,-2.639824390E0,1.378141761E0,3.273124397E-1
5.328015000E-1,-2.701763868E0,8.657995462E-1,8.905718923E-1
5.428105000E-1,-2.430637836E0,3.665918112E-1,8.128265142E-1
5.528205000E-1,-1.863978744E0,-4.783690274E-1,8.726597428E-1
5.627995000E-1,-9.507650137E-1,-1.351052523E0,1.561958551E0
5.728095000E-1,9.781981260E-2,-2.239956856E0,2.015107632E0
5.828195000E-1,9.231880307E-1,-3.315354109E0,2.161306620E0
5.928295000E-1,1.350809336E0,-4.259866238E0,2.343491316E0
6.028085000E-1,1.458302498E0,-4.848622322E0,2.511652708E0
6.128185000E-1,1.357293010E0,-5.326403141E0,2.499000549E0
6.228285000E-1,1.072282076E0,-5.405444145E0,2.236511707E0
6.328375000E-1,6.747848392E-1,-5.240179062E0,1.735715866E0
6.428175000E-1,2.831891179E-1,-4.996347904E0,1.463775992E0
6.528265000E-1,3.507491201E-2,-4.186766624E0,1.764446974E0
6.628365000E-1,-2.017208636E-1,-3.335818291E0,2.281442642E0
6.728465000E-1,-4.312500656E-1,-3.035224438E0,2.594412804E0
6.828255000E-1,-5.463473201E-1,-3.585224867E0,2.583528519E0
6.928355000E-1,-1.615298539E-1,-3.859922886E0,2.765457630E0
7.028455000E-1,1.618990749E-1,-4.116916656E0,3.204751253E0
7.128545000E-1,-6.228088588E-2,-4.609435558E0,3.612886906E0
7.228645000E-1,-8.356665969E-1,-4.610774040E0,3.857586384E0
7.328435000E-1,-1.853673935E0,-3.978382587E0,4.065539360E0
7.428535000E-1,-2.743312120E0,-3.073174953E0,4.167681694E0
7.528635000E-1,-3.265711069E0,-2.365665913E0,4.191018581E0
7.628735000E-1,-3.524474382E0,-2.222505331E0,4.167100430E0
7.728525000E-1,-3.602392912E0,-2.050383329E0,4.057086945E0
7.828625000E-1,-3.653656721E0,-1.646909118E0,3.809361935E0
7.928715000E-1,-3.646493196E0,-1.323487282E0,3.490655899E0
8.028815000E-1,-3.556848526E0,-1.102178574E0,3.361474276E0
8.128605000E-1,-3.440938950E0,-4.758780301E-1,3.494473457E0
8.228705000E-1,-3.303296089E0,3.172595501E-1,3.651451826E0
8.328805000E-1,-3.236228704E0,9.718705416E-1,3.675612211E0
8.428905000E-1,-3.252439499E0,1.263625979E0,3.537023783E0
8.528695000E-1,-3.241188049E0,8.566870689E-1,3.175439835E0
8.628795000E-1,-3.211838007E0,6.840500832E-1,2.681339264E0
8.728895000E-1,-2.959942579E0,6.428947449E-1,2.344224930E0
8.828985000E-1,-2.527091026E0,8.174167871E-1,2.268740654E0
8.929085000E-1,-1.994539857E0,1.209930897E0,2.452548742E0
9.028875000E-1,-1.608338833E0,1.561060429E0,2.594548225E0
9.128975000E-1,-1.567221761E0,1.522022247E0,2.494589806E0
9.229075000E-1,-1.790829778E0,1.346286654E0,2.498684645E0
9.329175000E-1,-2.181679487E0,1.472077608E0,2.872091055E0
9.428965000E-1,-2.521552563E0,1.370604753E0,2.953191042E0
9.529065000E-1,-2.638884068E0,1.221276164E0,2.489633560E0
9.629155000E-1,-2.354036093E0,7.727484107E-1,1.711809039E0
9.729255000E-1,-1.752636433E0,4.288506806E-1,1.072870612E0
9.829045000E-1,-1.150835514E0,1.373360008E-1,6.192842126E-1
9.929145000E-1,-7.860258818E-1,-3.032036722E-1,3.912943006E-1
1.002924500E0,-6.066116691E-1,-7.846611142E-1,4.418168664E-1
1.012934500E0,-4.612978697E-1,-8.691767454E-1,5.629656911E-1
1.022913500E0,-4.235323668E-1,-5.777563453E-1,6.118544340E-1
1.032923500E0,-5.163345337E-1,-1.752361804E-1,6.687049866E-1
1.042932500E0,-5.424759388E-1,1.846413016E-1,8.504984975E-1
1.052942500E0,-5.328422189E-1,5.793531537E-1,9.370188713E-1
1.062952500E0,-4.632258713E-1,9.796494246E-1,8.365764618E-1
1.072931500E0,-3.761249483E-1,1.344297409E0,6.695953608E-1
1.082941500E0,-2.499219924E-1,1.454366922E0,1.164118275E-1
1.092951500E0,-3.746682405E-1,9.727746248E-1,-5.578622818E-1
1.102961500E0,-4.763474762E-1,5.993466973E-1,-9.441567063E-1
1.112940500E0,-5.567693710E-1,5.880440474E-1,-8.616485596E-1
1.122950500E0,-7.035521269E-1,5.549830198E-1,-7.119163275E-1
1.132959500E0,-7.283176184E-1,2.820270956E-1,-4.848864675E-1
1.142969500E0,-6.341636181E-1,1.044778712E-2,-1.703365147E-1
1.152948500E0,-4.941605031E-1,-2.163146622E-2,1.463329643E-1
1.162958500E0,-4.260246158E-1,1.161437109E-1,4.583300054E-1
1.172968500E0,-4.383716285E-1,3.733995259E-1,6.036660075E-1
1.182978500E0,-2.462147176E-1,8.500118852E-1,4.127018750E-1
1.192948000E0,-9.633049369E-2,9.231067896E-1,2.318315506E-1
1.202958000E0,-8.851331472E-2,8.042275310E-1,3.297666311E-1
1.212967000E0,-1.375701576E-1,7.100099921E-1,3.389740586E-1
1.222977000E0,-1.890316419E-2,6.176680923E-1,2.566786408E-1
1.232987000E0,1.538339406E-1,3.856320083E-1,1.755624264E-1
1.242966000E0,2.520318925E-1,1.665934026E-1,1.611512750E-1
1.252976000E0,4.073248208E-1,1.148647815E-1,1.797798276E-1
1.262986000E0,5.059880614E-1,1.652459353E-1,5.418330431E-2
1.272996000E0,4.487215877E-1,3.128318191E-1,7.751954719E-3
1.282975000E0,2.253308296E-1,4.441291094E-1,7.784981281E-2
1.292985000E0,-3.503344953E-2,4.983142912E-1,1.687319279E-1
1.302994000E0,-9.122401476E-2,4.453900754E-1,2.047226727E-1
1.313004000E0,-1.231382713E-1,-1.125663370E-1,4.023026228E-1
1.322983000E0,-2.857368067E-2,-6.791833639E-1,6.453259587E-1
1.332993000E0,1.999263763E-1,-1.185152054E0,8.762907386E-1
1.343003000E0,3.881817460E-1,-1.643503070E0,9.889472127E-1
1.353013000E0,3.939445317E-1,-2.030765772E0,9.938772321E-1
1.362992000E0,3.106544316E-1,-2.482274771E0,9.029571414E-1
1.373002000E0,3.398377299E-1,-2.551995516E0,8.397768736E-1
1.383011000E0,-5.041787773E-2,-2.033740282E0,4.936769307E-1
1.393021000E0,-7.094380856E-1,-1.477122426E0,5.475583673E-1
1.403031000E0,-1.177837491E0,-6.627133489E-1,7.254911065E-1
1.413010000E0,-1.099807382E0,-1.940685809E-1,8.013212085E-1
1.423020000E0,-1.082096338E0,-6.457865238E-1,7.159871459E-1
1.433030000E0,-1.120445848E0,-8.616093993E-1,6.774065495E-1
1.443039000E0,-1.286415935E0,-1.140704870E0,6.507738829E-1
1.453019000E0,-1.481025696E0,-1.176423192E0,6.414825320E-1
1.463028000E0,-1.626765013E0,-1.149602175E0,6.054824591E-1
1.473038000E0,-2.007014751E0,-1.063828468E0,6.125019789E-1
1.483048000E0,-1.935353994E0,-7.178685665E-1,4.126626551E-1
1.493027000E0,-1.646103263E0,-1.194235444E0,8.918818831E-2
1.503037000E0,-1.245236039E0,-1.751933098E0,-1.566855013E-1
1.513047000E0,-9.253526926E-1,-2.164702654E0,-3.004654348E-1
1.523057000E0,-6.703888774E-1,-1.602076173E0,-4.529513717E-1
1.533036000E0,-7.720004916E-1,-1.281925559E0,-3.988716006E-1
1.543046000E0,-8.214378357E-1,-1.333011985E0,-2.416910082E-1
1.553055000E0,-6.895526648E-1,-1.372357965E0,-9.200645238E-2
1.563065000E0,-5.836696625E-1,-1.469816923E0,1.748782247E-1
1.573075000E0,-5.172327757E-1,-1.681327939E0,5.177021027E-1
1.583054000E0,-4.089275897E-1,-2.130570889E0,9.371747375E-1
1.593064000E0,-3.343745768E-1,-2.624415159E0,1.469107389E0
1.603074000E0,-9.922025204E-1,-2.598351479E0,2.382263422E0
1.613083000E0,-1.119346738E0,-2.195032835E0,2.265558958E0
1.623063000E0,-9.569680095E-1,-2.156515360E0,1.731906414E0
1.633072000E0,-9.423128963E-1,-2.061716318E0,1.561197042E0
1.643082000E0,-1.018704653E0,-9.696251750E-1,1.906945586E0
1.653092000E0,-1.266395330E0,3.925658762E-1,2.347856045E0
1.663071000E0,-1.824194074E0,1.651383519E0,2.768856764E0
1.673081000E0,-2.477397442E0,2.902322531E0,3.017338037E0
1.683091000E0,-2.920272112E0,3.706994295E0,2.756150007E0
1.693100000E0,-3.337230921E0,4.493280888E0,2.118322849E0
1.703080000E0,-3.723979950E0,4.399228096E0,1.371807575E0
1.713090000E0,-3.921008348E0,2.871788740E0,1.127475500E0
1.723099000E0,-3.957164288E0,1.102541447E0,1.166241765E0
1.733109000E0,-3.797388315E0,-4.411032796E-1,1.243234158E0
1.743119000E0,-3.266412973E0,-1.500140786E0,1.370109439E0
1.753098000E0,-2.271099091E0,-2.167092562E0,1.503711581E0
1.763108000E0,-8.664264083E-1,-2.207564592E0,1.600415826E0
1.773118000E0,7.201986313E-1,-1.761069298E0,1.599775553E0
1.783127000E0,2.111403227E0,-1.056403637E0,1.495941043E0
1.793107000E0,3.159655094E0,-7.715711743E-2,1.380821228E0
1.803116000E0,3.864758015E0,9.559578896E-1,1.224432230E0
1.813126000E0,4.206290245E0,1.616670370E0,8.565742970E-1
1.823136000E0,4.501941204E0,2.152320385E0,7.882959247E-1
1.833115000E0,1.951483965E0,-4.470907152E-1,2.432283014E-1
1.843125000E0,-3.203892708E-1,-1.827579737E0,4.769580066E-1
1.853135000E0,9.160658717E-1,-4.453783035E-1,2.804533243E0
1.863144000E0,1.287877917E0,-7.292880416E-1,2.538646698E0
1.873124000E0,7.870336771E-1,-1.272853613E0,7.328864932E-1
1.883133000E0,2.541588545E-1,-1.582079649E0,-2.636817098E-1
1.893143000E0,-1.629366577E-1,-6.791363358E-1,-5.711080432E-1
1.903153000E0,-2.645066679E-1,5.257717371E-1,-5.374680758E-1
1.913163000E0,-2.232052684E-1,1.155817270E0,-3.486021757E-1
1.923142000E0,-1.959528625E-1,1.297133446E0,-1.256202161E-1
1.933152000E0,-2.986197472E-1,1.186486721E0,6.728428602E-2
1.943162000E0,-4.459295571E-1,8.147964478E-1,5.778612569E-2
1.953171000E0,-4.233589768E-1,3.713589907E-1,-1.383321881E-1
1.963151000E0,-2.327759564E-1,1.008518860E-1,-2.847101986E-1
1.973160000E0,-1.977102757E-1,-1.414117962E-2,-2.131515890E-1
1.983170000E0,-3.981909156E-1,-1.201403216E-1,-2.837109007E-2
1.993180000E0,-4.788183272E-1,5.899531394E-2,4.193006456E-2
2.003159000E0,-4.273594022E-1,3.072077930E-1,-3.047729284E-2
2.013169000E0,-4.628717303E-1,4.174510241E-1,-6.075983495E-2
2.023179000E0,-6.234648824E-1,5.252709985E-1,5.385329574E-2
2.033188000E0,-8.509768844E-1,7.152334452E-1,2.589935660E-1
2.043168000E0,-1.140260696E0,9.196406603E-1,4.727039933E-1
2.053177000E0,-1.442974210E0,1.158278227E0,6.237338781E-1
2.063187000E0,-1.664360881E0,1.419338942E0,7.179687619E-1
2.073197000E0,-1.668079257E0,1.578274608E0,7.107151747E-1
2.083207000E0,-1.424563289E0,1.558010340E0,5.713461041E-1
2.093186000E0,-9.339222312E-1,1.243342638E0,3.395154178E-1
2.103196000E0,-3.409318626E-1,5.492531657E-1,2.086279690E-1
2.113205000E0,1.482561231E-1,-2.618039213E-2,1.837082505E-1
2.123215000E0,3.631729484E-1,-3.236128688E-1,2.512870431E-1
2.133194000E0,4.207489192E-1,-3.706460595E-1,2.588991523E-1
2.143204000E0,2.866233289E-1,-1.419572532E-1,1.401797235E-1
2.153214000E0,1.861484647E-1,2.954705358E-1,8.241058886E-2
2.163224000E0,4.073990881E-1,1.041173935E0,3.821063414E-2
2.173203000E0,7.206885815E-1,1.542972207E0,7.912346721E-2
2.183213000E0,9.051074386E-1,1.226983070E0,2.734077275E-1
2.193214625E0,7.123385370E-2,5.207427740E-1,-1.318521798E-1
2.203223625E0,7.194864154E-1,-3.438151479E-1,-1.856243312E-1
2.213203625E0,1.376924396E0,3.224369287E-1,-8.149445802E-2
2.223212625E0,1.436194181E0,1.386411071E0,-1.130782142E-1
2.233222625E0,9.713585377E-1,1.720012426E0,-2.295714021E-1
2.243232625E0,3.253622055E-1,1.625926971E0,-2.280318290E-1
2.253242625E0,-1.851494014E-1,1.409029722E0,-9.696363658E-2
2.263221625E0,-4.402261972E-1,1.218646169E0,-1.141154617E-1
2.273231625E0,-4.830929935E-1,1.206588030E0,-2.142913938E-1
2.283240625E0,-3.540753424E-1,1.316599965E0,-3.071694076E-1
2.293250625E0,-1.094883755E-1,1.429979205E0,-4.114579558E-1
2.303229625E0,1.218052953E-1,1.520477414E0,-5.031002760E-1
2.313239625E0,3.486580253E-1,1.607177854E0,-5.764573216E-1
2.323249625E0,5.982302427E-1,1.699425697E0,-6.504702568E-1
2.333259625E0,7.263708115E-1,1.755678892E0,-6.969763041E-1
2.343238625E0,7.148979306E-1,1.911376834E0,-7.238028646E-1
2.353248625E0,6.173285842E-1,2.088876963E0,-7.402913570E-1
2.363258625E0,4.863394201E-1,2.182518244E0,-7.382463217E-1
2.373267625E0,3.825941086E-1,2.220633745E0,-7.052280903E-1
2.383247625E0,3.539603353E-1,2.271454573E0,-6.393484473E-1
2.393256625E0,3.211526573E-1,2.155308247E0,-6.122820377E-1
2.403266625E0,2.788819075E-1,1.908873200E0,-6.024712324E-1
2.413276625E0,2.451748997E-1,1.684666991E0,-6.163258553E-1
2.423286625E0,1.958387792E-1,1.519005299E0,-6.484633088E-1
2.433265625E0,1.370958984E-1,1.446294069E0,-6.974749565E-1
2.443275625E0,1.102839857E-1,1.482600927E0,-7.449833751E-1
2.453284625E0,1.279847026E-1,1.594526768E0,-7.740575671E-1
2.463294625E0,1.718315184E-1,1.700075030E0,-7.970963120E-1
2.473273625E0,2.110463977E-1,1.788267493E0,-8.153643608E-1
2.483283625E0,2.302110195E-1,1.814704180E0,-8.241024613E-1
2.493293625E0,1.586960554E-1,1.756288886E0,-8.475769758E-1
2.503303625E0,9.213060141E-2,1.746919036E0,-8.408333659E-1
2.513282625E0,2.816848457E-3,1.678010583E0,-8.297851682E-1
2.523292625E0,-7.603562623E-2,1.622342467E0,-7.977916002E-1
2.533301625E0,-1.419436038E-1,1.568271399E0,-7.378325462E-1
2.543311625E0,-2.088232934E-1,1.512575865E0,-6.707099676E-1
2.553321625E0,-2.670916617E-1,1.481641054E0,-6.007900238E-1
2.563300625E0,-3.280732930E-1,1.443989277E0,-5.295600295E-1
2.573310625E0,-3.855911493E-1,1.403836131E0,-4.675632119E-1
2.583320625E0,-4.235760868E-1,1.363977909E0,-4.147833586E-1
2.593330625E0,-4.531315863E-1,1.328584671E0,-3.759084642E-1
2.603309625E0,-4.555295110E-1,1.301910639E0,-3.463311195E-1
2.613319625E0,-4.400901794E-1,1.268860936E0,-3.072597086E-1
2.623328625E0,-4.092504978E-1,1.269127727E0,-2.749361098E-1
2.633338625E0,-3.903242350E-1,1.232541323E0,-2.096541226E-1
2.643317625E0,-3.751961589E-1,1.164660573E0,-1.322360188E-1
2.653327625E0,-3.409107029E-1,1.137270093E0,-7.895005494E-2
2.663337625E0,-2.796734273E-1,1.208603740E0,-6.939037144E-2
2.673347625E0,-2.324688435E-1,1.272912621E0,-1.564713009E-2
2.683326625E0,-2.261787206E-1,1.268625498E0,7.592300326E-2
2.693336625E0,-2.396660298E-1,1.250537276E0,1.524766386E-1
2.703345625E0,-2.436376065E-1,1.383267164E0,1.168882847E-1
2.713355625E0,-2.497864068E-1,1.474860072E0,1.421358585E-1
2.723365625E0,-2.579250336E-1,1.488721013E0,1.928855777E-1
2.733344625E0,-2.705881298E-1,1.453163624E0,2.319769859E-1
2.743354625E0,-2.966754138E-1,1.348106146E0,2.835919857E-1
2.753364625E0,-3.162102699E-1,1.155549765E0,3.311862946E-1
2.763373625E0,-3.018161654E-1,9.013076425E-1,3.546511531E-1
2.773353625E0,-2.815732658E-1,6.386695504E-1,3.741684854E-1
2.783362625E0,-2.833549380E-1,4.096403122E-1,3.838700950E-1
2.793372625E0,-3.030798137E-1,2.307685763E-1,3.525798023E-1
2.803382625E0,-3.068729639E-1,1.164191067E-1,3.075470626E-1
2.813361625E0,-3.217122853E-1,4.972861707E-2,2.834171057E-1
2.823371625E0,-2.989126742E-1,-6.172520667E-2,2.669380009E-1
2.833381625E0,-2.124353945E-1,-1.874773949E-1,2.674606442E-1
2.843391625E0,-1.525353193E-1,-3.148180544E-1,2.762272358E-1
2.853370625E0,-1.565253139E-1,-3.425186872E-1,2.361534536E-1
2.863380625E0,-2.146658450E-1,-2.030380368E-1,1.594046056E-1
2.873389625E0,-2.848453820E-1,1.132535785E-1,6.365856528E-2
2.883399625E0,-3.364052474E-1,4.519866109E-1,1.993398368E-2
2.893409625E0,-3.585184216E-1,6.546154022E-1,8.830428123E-3
2.903388625E0,-3.456228673E-1,7.358689904E-1,1.666731201E-2
2.913398625E0,-3.358895779E-1,7.337560058E-1,3.898023441E-2
2.923408625E0,-3.016562462E-1,6.749089360E-1,8.384038508E-2
2.933417625E0,-2.275048941E-1,6.177646518E-1,9.534290433E-2
2.943397625E0,-1.310340166E-1,5.834099054E-1,7.937645167E-2
2.953406625E0,-1.661738753E-2,6.465253830E-1,6.439116597E-2
2.963416625E0,1.057090536E-1,8.576896191E-1,5.182024091E-2
2.973426625E0,1.870870590E-1,1.098184586E0,5.663029850E-2
2.983405625E0,2.144909799E-1,1.245954275E0,7.134613395E-2
2.993415625E0,1.836944968E-1,1.154726028E0,8.506604284E-2
3.003425625E0,1.334638149E-1,9.548349977E-1,6.329444051E-2
3.013435625E0,1.768070012E-1,8.717958927E-1,2.953533456E-2
3.023414625E0,1.976252049E-1,7.890986204E-1,-8.022426628E-3
3.033424625E0,1.317812949E-1,6.849790812E-1,-2.216761187E-2
3.043433625E0,-2.440991066E-2,5.732448697E-1,-1.037300564E-2
3.053443625E0,-2.334740758E-1,4.539862573E-1,1.443049219E-2
3.063453625E0,-3.793551028E-1,4.228882492E-1,3.493523598E-2
3.073432625E0,-4.075443447E-1,5.151062012E-1,2.345104143E-2
3.083442625E0,-3.465129435E-1,5.973539352E-1,3.986357152E-2
3.093452625E0,-2.336848229E-1,6.570103765E-1,4.245296121E-2
3.103461625E0,-1.013102680E-1,7.221800685E-1,5.259321630E-2
3.113441625E0,-3.407771885E-2,7.409819365E-1,3.034832701E-2
3.123450625E0,4.898095131E-2,9.192555547E-1,2.265019342E-2
3.133460625E0,1.129713804E-1,1.117435336E0,6.351263821E-2
3.143470625E0,1.745271534E-1,1.283044577E0,1.066073775E-1
3.153449625E0,2.975271046E-1,1.408805251E0,1.573576778E-1
3.163459625E0,3.971138895E-1,1.376245737E0,1.905846000E-1
3.173469625E0,4.093915224E-1,1.277459860E0,1.845603436E-1
3.183478625E0,3.377042711E-1,1.252691388E0,1.823664308E-1
3.193441250E0,1.948296875E-1,1.261851907E0,1.794183105E-1
3.203450250E0,4.183267429E-2,1.270146847E0,1.703774184E-1
3.213460250E0,-7.649265230E-2,1.243979216E0,1.720980406E-1
3.223470250E0,-1.572844386E-1,1.182978153E0,1.799248159E-1
3.233480250E0,-2.123402655E-1,1.109003544E0,1.972701401E-1
3.243459250E0,-2.452899665E-1,1.053296447E0,2.087238729E-1
3.253469250E0,-2.624653578E-1,1.002578616E0,2.237353325E-1
3.263479250E0,-2.595452070E-1,9.700057507E-1,2.272080928E-1
3.273488250E0,-2.491466701E-1,9.709291458E-1,2.210811675E-1
3.283468250E0,-2.482545078E-1,9.883261919E-1,2.127848864E-1
3.293477250E0,-2.680335641E-1,9.948052764E-1,2.071605325E-1
3.303487250E0,-3.047952950E-1,9.823910594E-1,1.990503967E-1
3.313497250E0,-3.454373479E-1,9.545757771E-1,1.790272593E-1
3.323476250E0,-3.818467557E-1,9.269068837E-1,1.612639725E-1
3.333486250E0,-4.055038095E-1,9.110499620E-1,1.493579447E-1
3.343496250E0,-4.181080163E-1,9.123415947E-1,1.445293725E-1
3.353505250E0,-4.233802855E-1,9.320710897E-1,1.287315041E-1
3.363485250E0,-4.169279635E-1,9.711857438E-1,1.079724282E-1
3.373494250E0,-4.042800963E-1,1.000524044E0,8.808569610E-2
3.383504250E0,-3.842549920E-1,1.010873556E0,6.999910623E-2
3.393514250E0,-3.527861238E-1,1.012123823E0,5.506528914E-2
3.403524250E0,-3.071794808E-1,9.885164499E-1,5.069237202E-2
3.413503250E0,-2.498072237E-1,9.581814408E-1,5.246533081E-2
3.423513250E0,-1.997350007E-1,9.325962067E-1,6.399335712E-2
3.433522250E0,-1.714492142E-1,9.265436530E-1,6.302409619E-2
3.443532250E0,-1.581062526E-1,9.488041997E-1,4.630076885E-2
3.453512250E0,-1.601357907E-1,9.629949331E-1,1.159191411E-2
3.463521250E0,-1.954871267E-1,9.425274730E-1,-2.833739296E-2
3.473531250E0,-2.295251787E-1,9.758530259E-1,-6.308002770E-2
3.483541250E0,-2.574044764E-1,1.033845782E0,-7.766003907E-2
3.493520250E0,-2.710039020E-1,1.044367433E0,-7.995191962E-2
3.503530250E0,-2.472189367E-1,1.079174757E0,-7.984965295E-2
