"Time (s)","Acceleration x (m/s^2)","Acceleration y (m/s^2)","Acceleration z (m/s^2)"
3.632702000E-3,-4.948814869E0,1.436521053E0,6.823474884E0
5.707897000E-3,-4.850652695E0,1.455674648E0,6.684611320E0
7.722058000E-3,-4.776432514E0,1.467645645E0,6.610390663E0
9.736218000E-3,-4.702212334E0,1.477222443E0,6.538564682E0
1.171986000E-2,-4.656722069E0,1.479616642E0,6.502651691E0
1.370350300E-2,-4.568136692E0,1.496376038E0,6.426037312E0
1.568714600E-2,-4.474762917E0,1.561019540E0,6.387730122E0
1.770130600E-2,-4.369418144E0,1.651999116E0,6.428431511E0
1.968494800E-2,-4.290409565E0,1.678335428E0,6.445190907E0
2.166859100E-2,-4.249708176E0,1.666364431E0,6.404489517E0
2.368275100E-2,-4.209006786E0,1.649604917E0,6.358999729E0
2.566639400E-2,-4.134786129E0,1.637633920E0,6.339846134E0
2.765003600E-2,-4.041412354E0,1.623268723E0,6.325480938E0
2.963367900E-2,-3.919308186E0,1.599326730E0,6.315904140E0
3.161732100E-2,-3.778050184E0,1.580173135E0,6.323086739E0
3.363148100E-2,-3.632004023E0,1.563413739E0,6.349422932E0
3.561512400E-2,-3.509899616E0,1.561019540E0,6.382941723E0
3.762928400E-2,-3.392583847E0,1.551442742E0,6.440402508E0
3.961292700E-2,-3.260902643E0,1.532289028E0,6.538564682E0
4.159656900E-2,-3.131615877E0,1.496376038E0,6.665457726E0
4.361072900E-2,-3.019088268E0,1.470039845E0,6.809109688E0
4.559437200E-2,-2.916137695E0,1.446097851E0,6.979097843E0
4.757801500E-2,-2.844311714E0,1.424550056E0,7.153874874E0
4.956165700E-2,-2.777273893E0,1.407790542E0,7.335834026E0
5.157581700E-2,-2.707842112E0,1.391031146E0,7.524975777E0
5.355946000E-2,-2.643198729E0,1.371877551E0,7.706935406E0
5.554310300E-2,-2.585737944E0,1.357512355E0,7.862558365E0
5.752674500E-2,-2.535459518E0,1.335964561E0,7.999027729E0
5.954090500E-2,-2.513911724E0,1.278503656E0,8.118738174E0
6.149403000E-2,-2.509123325E0,1.168370485E0,8.221688271E0
6.350819000E-2,-2.485181332E0,1.103726983E0,8.298302650E0
6.552235100E-2,-2.454056740E0,1.072602391E0,8.336610794E0
6.750599300E-2,-2.410961151E0,1.048660398E0,8.327033043E0
6.952015300E-2,-2.382230759E0,1.017535686E0,8.267178535E0
7.153431300E-2,-2.387019157E0,9.935936928E-1,8.200140953E0
7.351795600E-2,-2.408566952E0,9.720458984E-1,8.149862289E0
7.553211600E-2,-2.451662540E0,9.433154464E-1,8.106766701E0
7.751575900E-2,-2.523488522E0,9.145850539E-1,8.070854187E0
7.952991900E-2,-2.609679937E0,8.906430602E-1,8.039729118E0
8.154407900E-2,-2.729389906E0,8.667010069E-1,7.999027729E0
8.352772200E-2,-2.873042107E0,8.547300100E-1,7.946355343E0
8.551136400E-2,-3.033453465E0,8.451532125E-1,7.903259754E0
8.749500700E-2,-3.203441858E0,8.164227605E-1,7.872135162E0
8.947864900E-2,-3.361459255E0,7.924807668E-1,7.831433773E0
9.146229200E-2,-3.502717018E0,7.805097699E-1,7.788338184E0
9.347645200E-2,-3.622427225E0,7.733271718E-1,7.747636795E0
9.549061200E-2,-3.715801001E0,7.661445141E-1,7.718906403E0
9.747425500E-2,-3.785232782E0,7.541735172E-1,7.692570210E0
9.948841500E-2,-3.852270603E0,7.565677166E-1,7.644686222E0
1.014720580E-1,-3.919308186E0,7.709329724E-1,7.606379032E0
1.034557000E-1,-3.974374771E0,7.781155705E-1,7.577648163E0
1.054088250E-1,-4.022258759E0,7.805097699E-1,7.556100368E0
1.074229850E-1,-4.084507942E0,7.876923680E-1,7.536946774E0
1.094371460E-1,-4.156333923E0,7.924807668E-1,7.529764175E0
1.114207880E-1,-4.216189384E0,7.876923680E-1,7.524975777E0
1.134044310E-1,-4.254496574E0,7.709329724E-1,7.517793179E0
1.154185910E-1,-4.292803764E0,7.493851185E-1,7.510610580E0
1.174327510E-1,-4.328716755E0,7.230489254E-1,7.486668587E0
1.194163940E-1,-4.359841347E0,6.799532771E-1,7.457938194E0
1.214000360E-1,-4.369418144E0,6.177040339E-1,7.426813602E0
1.233836790E-1,-4.369418144E0,5.458779931E-1,7.400477409E0
1.253978390E-1,-4.367023945E0,4.764461517E-1,7.388506413E0
1.273814810E-1,-4.362235546E0,3.974374831E-1,7.378929615E0
1.293956420E-1,-4.352658749E0,3.040636182E-1,7.381323814E0
1.313792840E-1,-4.347870350E0,2.106897533E-1,7.390900612E0
1.333934440E-1,-4.347870350E0,1.101332754E-1,7.417236805E0
1.354076040E-1,-4.350264549E0,4.788403399E-3,7.457938194E0
1.373912470E-1,-4.345476151E0,-1.029506698E-1,7.501033783E0
1.393748900E-1,-4.345476151E0,-1.580173075E-1,7.529764175E0
1.413585320E-1,-4.364629745E0,-2.537853718E-1,7.594407558E0
1.433421750E-1,-4.407725334E0,-3.375824392E-1,7.671022415E0
1.453258170E-1,-4.453215122E0,-4.189853072E-1,7.776367188E0
1.473399780E-1,-4.501099110E0,-4.932055473E-1,7.900865555E0
1.493541380E-1,-4.541800499E0,-5.674257874E-1,8.061277390E0
1.513377800E-1,-4.572925091E0,-6.368576288E-1,8.248024940E0
1.533214230E-1,-4.604049683E0,-6.919242740E-1,8.451532364E0
1.553050650E-1,-4.611232281E0,-7.493851185E-1,8.667010307E0
1.573192260E-1,-4.577713490E0,-8.212111592E-1,8.889671326E0
1.593333860E-1,-4.422090530E0,-9.600749016E-1,9.088389397E0
1.613170280E-1,-4.132391930E0,-1.130063176E0,9.215282440E0
1.633006710E-1,-3.928884983E0,-1.256955862E0,9.330204010E0
1.652843130E-1,-3.857059002E0,-1.350329757E0,9.509769440E0
1.672984740E-1,-3.830722809E0,-1.422155857E0,9.756371498E0
1.692821160E-1,-3.780444384E0,-1.493981838E0,1.001494598E1
1.712657590E-1,-3.699041605E0,-1.563413739E0,1.022324085E1
1.732494010E-1,-3.608062029E0,-1.625662923E0,1.037168217E1
1.752635620E-1,-3.500322819E0,-1.687912226E0,1.047463226E1
1.772777220E-1,-3.385401249E0,-1.745373011E0,1.056321812E1
1.792613640E-1,-3.275267839E0,-1.798045516E0,1.064701462E1
1.812450070E-1,-3.153163671E0,-1.833958507E0,1.070687008E1
1.832286490E-1,-3.026270866E0,-1.862688899E0,1.072602367E1
1.852122920E-1,-2.896984100E0,-1.877054095E0,1.073560047E1
1.871959350E-1,-2.808398485E0,-1.855506301E0,1.097262669E1
1.892100950E-1,-2.887407303E0,-1.805228114E0,1.168609810E1
1.911937370E-1,-3.004723072E0,-1.762132406E0,1.224873543E1
1.931773800E-1,-2.980781078E0,-1.731007814E0,1.214578533E1
1.951610220E-1,-2.827552319E0,-1.695094824E0,1.155441761E1
1.971751830E-1,-2.647987127E0,-1.680729628E0,1.091037750E1
1.991588250E-1,-2.513911724E0,-1.675941229E0,1.045308495E1
2.011119500E-1,-2.427720547E0,-1.678335428E0,1.018972206E1
2.031261100E-1,-2.365471363E0,-1.692700624E0,1.005325317E1
2.051097530E-1,-2.329558372E0,-1.704671621E0,1.000776291E1
2.071239130E-1,-2.312798738E0,-1.704671621E0,1.005085850E1
2.091075560E-1,-2.305616140E0,-1.697489023E0,1.017535686E1
2.111217160E-1,-2.312798738E0,-1.687912226E0,1.035252857E1
2.131053580E-1,-2.329558372E0,-1.680729628E0,1.057040024E1
2.150890010E-1,-2.343923569E0,-1.663970232E0,1.079306126E1
2.170726440E-1,-2.341529369E0,-1.654393315E0,1.099896240E1
2.190868040E-1,-2.329558372E0,-1.644816518E0,1.114500904E1
2.210704460E-1,-2.319981337E0,-1.630451322E0,1.124556541E1
2.230540890E-1,-2.319981337E0,-1.611297727E0,1.130781460E1
2.250682490E-1,-2.317587137E0,-1.594538331E0,1.131739140E1
2.270518920E-1,-2.319981337E0,-1.587355733E0,1.127668953E1
2.290355340E-1,-2.310404539E0,-1.577778935E0,1.119768143E1
2.310496940E-1,-2.300827742E0,-1.553836942E0,1.108754826E1
2.330638540E-1,-2.310404539E0,-1.525106430E0,1.097262669E1
2.350474970E-1,-2.305616140E0,-1.501164436E0,1.087685871E1
2.370311400E-1,-2.276885748E0,-1.503558636E0,1.079545593E1
2.390453000E-1,-2.245761156E0,-1.501164436E0,1.071884060E1
2.410594600E-1,-2.243366957E0,-1.486799240E0,1.064940929E1
2.430736200E-1,-2.255337954E0,-1.455674648E0,1.059434223E1
2.450572630E-1,-2.255337954E0,-1.424550056E0,1.056800652E1
2.470409050E-1,-2.248155355E0,-1.395819545E0,1.056321812E1
2.490245480E-1,-2.238578558E0,-1.359906554E0,1.057997704E1
2.510081900E-1,-2.240972757E0,-1.314416766E0,1.061349583E1
2.530223510E-1,-2.243366957E0,-1.254561663E0,1.066616821E1
2.550059930E-1,-2.243366957E0,-1.185129881E0,1.074038887E1
2.569896360E-1,-2.197877169E0,-1.115697980E0,1.080982113E1
2.589732780E-1,-2.097320795E0,-1.043871999E0,1.090080070E1
2.609874380E-1,-1.968033791E0,-9.816226959E-1,1.099896240E1
2.629710810E-1,-1.910573006E0,-9.576807022E-1,1.104445267E1
2.649547240E-1,-1.807622313E0,-9.313444495E-1,1.112106705E1
2.669688840E-1,-1.723825216E0,-9.145850539E-1,1.118331623E1
2.689525260E-1,-1.680729628E0,-9.145850539E-1,1.124077702E1
2.709361690E-1,-1.661576033E0,-9.337386489E-1,1.129584408E1
2.729503290E-1,-1.647210717E0,-9.576807022E-1,1.137724686E1
2.749339720E-1,-1.642422318E0,-9.983820915E-1,1.145864964E1
2.769176140E-1,-1.630451322E0,-1.051054597E0,1.150892735E1
2.789012570E-1,-1.611297727E0,-1.101332784E0,1.152329254E1
2.809154170E-1,-1.563413739E0,-1.146822572E0,1.151132202E1
2.829295770E-1,-1.496376038E0,-1.189918280E0,1.146822643E1
2.849132200E-1,-1.426944256E0,-1.235408068E0,1.139640045E1
2.868968620E-1,-1.374271750E0,-1.271321058E0,1.129344940E1
2.889110220E-1,-1.328781962E0,-1.312022567E0,1.115697956E1
2.909251830E-1,-1.288080573E0,-1.364694953E0,1.100614548E1
2.929088250E-1,-1.259350061E0,-1.410184860E0,1.085770512E1
2.948924680E-1,-1.244984865E0,-1.450886250E0,1.069489861E1
2.969066280E-1,-1.233013868E0,-1.486799240E0,1.052969933E1
2.989207880E-1,-1.218648672E0,-1.527500629E0,1.038125896E1
3.008739130E-1,-1.206677675E0,-1.563413739E0,1.025197124E1
3.028880730E-1,-1.204283476E0,-1.596932530E0,1.013944435E1
3.048717160E-1,-1.209071875E0,-1.616086125E0,1.001255131E1
3.068553580E-1,-1.206677675E0,-1.632845521E0,9.876082420E0
3.088695190E-1,-1.197100878E0,-1.661576033E0,9.730035782E0
3.108836790E-1,-1.180341482E0,-1.683123827E0,9.593565941E0
3.128673210E-1,-1.154005170E0,-1.692700624E0,9.461885452E0
3.148509640E-1,-1.142034173E0,-1.697489023E0,9.337387085E0
3.168651240E-1,-1.122880578E0,-1.714248419E0,9.222464561E0
3.188792840E-1,-1.091755986E0,-1.735796213E0,9.102754593E0
3.208629270E-1,-1.063025594E0,-1.733402014E0,8.983044624E0
3.228465690E-1,-1.039083481E0,-1.735796213E0,8.865729332E0
3.248302120E-1,-1.007958889E0,-1.747767210E0,8.755595207E0
3.268138540E-1,-9.768342972E-1,-1.759738207E0,8.650250435E0
3.287974970E-1,-9.528923035E-1,-1.776497602E0,8.559270859E0
3.307811400E-1,-9.361328483E-1,-1.793257117E0,8.487444878E0
3.327953000E-1,-9.289502501E-1,-1.821987510E0,8.434772491E0
3.347789420E-1,-9.145850539E-1,-1.843535304E0,8.394071579E0
3.367625850E-1,-9.002198577E-1,-1.877054095E0,8.367734909E0
3.387462280E-1,-8.762778044E-1,-1.915361404E0,8.365341187E0
3.407603880E-1,-8.499416113E-1,-1.956062794E0,8.370129585E0
3.427440300E-1,-8.307880163E-1,-1.989581585E0,8.374917984E0
3.447276730E-1,-8.140285611E-1,-2.015917778E0,8.389283180E0
3.467418330E-1,-7.900865674E-1,-2.044648170E0,8.403648376E0
3.486949580E-1,-7.589619160E-1,-2.068590164E0,8.415618896E0
3.507091180E-1,-7.350199223E-1,-2.082955360E0,8.437167168E0
3.527232780E-1,-7.182605267E-1,-2.097320795E0,8.470685959E0
3.547069210E-1,-7.015010715E-1,-2.128445387E0,8.525752068E0
3.567210810E-1,-6.871358752E-1,-2.164358377E0,8.597578049E0
3.587047240E-1,-6.823474765E-1,-2.185906172E0,8.702922821E0
3.607188840E-1,-6.895300746E-1,-2.202665567E0,8.829815865E0
3.627330440E-1,-7.038952708E-1,-2.229001760E0,8.975862503E0
3.647166870E-1,-7.182605267E-1,-2.255337954E0,9.155426979E0
3.667003290E-1,-7.254431248E-1,-2.284068346E0,9.354146004E0
3.687144890E-1,-7.374141216E-1,-2.319981337E0,9.583989143E0
3.706981320E-1,-7.445967197E-1,-2.358288765E0,9.847352028E0
3.727122920E-1,-7.398083210E-1,-2.379836559E0,1.012029076E1
3.746959350E-1,-7.374141216E-1,-2.375048161E0,1.040280628E1
3.767100950E-1,-7.374141216E-1,-2.367865562E0,1.070208168E1
3.786937370E-1,-7.398083210E-1,-2.358288765E0,1.102290440E1
3.806773800E-1,-7.374141216E-1,-2.339135170E0,1.136288166E1
3.826915400E-1,-7.350199223E-1,-2.317587137E0,1.172201157E1
3.846751830E-1,-7.278373241E-1,-2.291250944E0,1.208592987E1
3.866588250E-1,-7.230489254E-1,-2.264914751E0,1.243069553E1
3.886729850E-1,-7.374141216E-1,-2.243366957E0,1.275151825E1
3.906566280E-1,-7.685387731E-1,-2.212242365E0,1.304361057E1
3.926097530E-1,-7.996633649E-1,-2.185906172E0,1.330218506E1
3.946239130E-1,-8.164227605E-1,-2.173935175E0,1.352245140E1
3.966380730E-1,-8.283938169E-1,-2.164358377E0,1.371398735E1
3.986217160E-1,-8.283938169E-1,-2.159569979E0,1.379299641E1
4.006053580E-1,-8.188169599E-1,-2.147598982E0,1.392467690E1
4.025890010E-1,-7.876923680E-1,-2.126051188E0,1.401326275E1
4.046031610E-1,-7.661445141E-1,-2.106897593E0,1.406593513E1
4.065868040E-1,-7.445967197E-1,-2.118868589E0,1.408508873E1
4.085704460E-1,-7.062895298E-1,-2.130839586E0,1.405875206E1
4.105846060E-1,-6.679822803E-1,-2.140416384E0,1.400607967E1
4.125987670E-1,-6.320692301E-1,-2.147598982E0,1.392228317E1
4.145824090E-1,-5.841852427E-1,-2.154781580E0,1.379299641E1
4.165965690E-1,-5.602431893E-1,-2.181117773E0,1.361343098E1
4.185802120E-1,-5.698199868E-1,-2.236184359E0,1.337879944E1
4.205943720E-1,-5.554547906E-1,-2.291250944E0,1.312501335E1
4.225780150E-1,-5.147533417E-1,-2.327163935E0,1.287601662E1
4.245616570E-1,-4.836287498E-1,-2.353500366E0,1.262223148E1
4.265758170E-1,-5.099649429E-1,-2.413355350E0,1.234929276E1
4.285289420E-1,-5.482721925E-1,-2.489969730E0,1.206438255E1
4.305431030E-1,-5.578489900E-1,-2.535459518E0,1.179623222E1
4.325572630E-1,-4.572925270E-1,-2.485181332E0,1.157596493E1
4.345409050E-1,-3.232172430E-1,-2.410961151E0,1.139161205E1
4.365550650E-1,-2.681505978E-1,-2.387019157E0,1.124317074E1
4.385387080E-1,-2.753331959E-1,-2.391807556E0,1.109233665E1
4.405528680E-1,-2.920926213E-1,-2.401384354E0,1.091277122E1
4.425365110E-1,-3.088520169E-1,-2.394201756E0,1.069729328E1
4.444896360E-1,-3.208230138E-1,-2.379836559E0,1.047463226E1
4.465037960E-1,-3.160346150E-1,-2.360682964E0,1.026154804E1
4.485179560E-1,-2.992752194E-1,-2.336740971E0,1.006043530E1
4.505015990E-1,-2.849099934E-1,-2.308010340E0,9.878476143E0
4.524852410E-1,-2.825157940E-1,-2.286462545E0,9.708487511E0
4.544994010E-1,-2.729389966E-1,-2.272097349E0,9.540893555E0
4.565135620E-1,-2.633621991E-1,-2.248155355E0,9.385271072E0
4.584972040E-1,-2.489969730E-1,-2.224213362E0,9.239224434E0
4.604808470E-1,-2.274491638E-1,-2.195482969E0,9.112331390E0
4.624950070E-1,-1.939303428E-1,-2.171540976E0,9.002198219E0
4.644786490E-1,-1.221042871E-1,-2.147598982E0,8.882488251E0
4.664622920E-1,-3.351882473E-2,-2.111685991E0,8.765172005E0
4.684764520E-1,5.027823523E-2,-2.066195965E0,8.616731644E0
4.704600950E-1,1.268926859E-1,-2.011129379E0,8.422801971E0
4.724437370E-1,2.178723514E-1,-1.953668594E0,8.200140953E0
4.744273800E-1,3.112462163E-1,-1.889025092E0,7.967903137E0
4.764415400E-1,4.022258818E-1,-1.814804912E0,7.738059998E0
4.784251830E-1,4.764461517E-1,-1.733402014E0,7.522581577E0
4.804088250E-1,5.458779931E-1,-1.651999116E0,7.335834026E0
4.823924680E-1,6.081272364E-1,-1.575384736E0,7.192182064E0
4.844066280E-1,6.560112834E-1,-1.493981838E0,7.077260017E0
4.863902710E-1,6.847416759E-1,-1.412579060E0,6.991068840E0
4.884044310E-1,7.015010715E-1,-1.333570361E0,6.933608055E0
4.903880730E-1,7.230489254E-1,-1.256955862E0,6.912060261E0
4.924022330E-1,7.350199223E-1,-1.177947283E0,6.926425457E0
4.943858760E-1,7.398083210E-1,-1.108515382E0,6.979097843E0
4.963390010E-1,7.278373241E-1,-1.046266198E0,7.074865818E0
4.983531610E-1,6.967126727E-1,-9.792284966E-1,7.213729858E0
5.003673210E-1,6.679822803E-1,-9.169792533E-1,7.386112213E0
5.023509640E-1,6.440402865E-1,-8.619126081E-1,7.587224960E0
5.043346060E-1,6.200982332E-1,-7.996633649E-1,7.807491779E0
5.063487670E-1,5.554547906E-1,-7.445967197E-1,8.013393402E0
5.083324090E-1,4.309563041E-1,-7.038952708E-1,8.209717751E0
5.103160520E-1,2.873041928E-1,-6.751648784E-1,8.396465302E0
5.123302120E-1,1.651999205E-1,-6.464344859E-1,8.544905663E0
5.143138540E-1,6.943184882E-2,-6.224924326E-1,8.662221909E0
5.162974970E-1,4.788403399E-3,-6.272808313E-1,8.762778282E0
5.182811400E-1,-5.027823523E-2,-6.584054828E-1,8.856152534E0
5.202953000E-1,-8.140286058E-2,-7.086837292E-1,8.932766914E0
5.223094600E-1,-6.943184882E-2,-7.709329724E-1,8.987833023E0
5.242931030E-1,-2.394201607E-2,-8.212111592E-1,9.042900085E0
5.262767450E-1,3.830722719E-2,-8.571242094E-1,9.097966194E0
5.282909050E-1,7.661445439E-2,-8.882488012E-1,9.148244858E0
5.302745480E-1,8.140286058E-2,-8.954314590E-1,9.165003777E0
5.322887080E-1,8.379705995E-2,-9.050082564E-1,9.176975250E0
5.342723510E-1,9.097966552E-2,-9.145850539E-1,9.174580574E0
5.362865110E-1,8.619125932E-2,-8.954314590E-1,9.141061783E0
5.382701530E-1,8.858546615E-2,-8.643068075E-1,9.105149269E0
5.402537960E-1,7.661445439E-2,-8.307880163E-1,9.093177795E0
5.422679560E-1,2.633621916E-2,-7.996633649E-1,9.074024200E0
5.442515990E-1,-5.746084079E-2,-7.709329724E-1,9.057265282E0
5.462352410E-1,-1.388636976E-1,-7.517793179E-1,9.023746490E0
5.482494010E-1,-1.843535304E-1,-7.661445141E-1,8.968679428E0
5.502330440E-1,-1.819593310E-1,-8.307880163E-1,8.896853447E0
5.522166870E-1,-1.077390760E-1,-9.145850539E-1,8.844181061E0
5.542003290E-1,-1.197100803E-2,-9.504981041E-1,8.846575737E0
5.562144890E-1,5.506663769E-2,-9.361328483E-1,8.901641846E0
5.581981320E-1,1.125274822E-1,-8.978256583E-1,8.995016098E0
5.601817740E-1,1.939303428E-1,-8.595184088E-1,9.076418877E0
5.621654170E-1,2.825157940E-1,-8.236053586E-1,9.119514465E0
5.641795770E-1,3.591302633E-1,-7.829039693E-1,9.133879662E0
5.661632200E-1,4.141969085E-1,-7.350199223E-1,9.119514465E0
5.681468620E-1,4.692635238E-1,-6.919242740E-1,9.028534889E0
5.701305050E-1,5.267243981E-1,-6.440402865E-1,8.939949036E0
5.721446650E-1,5.554547906E-1,-5.961562395E-1,9.076418877E0
5.741283080E-1,5.386953950E-1,-5.698199868E-1,9.339780807E0
5.761424680E-1,5.003881454E-1,-5.722141862E-1,9.536105156E0
5.781261100E-1,4.668693244E-1,-5.746083856E-1,9.627084732E0
5.801402710E-1,4.309563041E-1,-5.841852427E-1,9.643844604E0
5.821239130E-1,3.854664862E-1,-6.057330370E-1,9.636661530E0
5.841075560E-1,3.423708379E-1,-6.296750307E-1,9.631873131E0
5.861217160E-1,2.944868207E-1,-6.655880809E-1,9.631873131E0
5.881053580E-1,2.370259613E-1,-7.086837292E-1,9.639056206E0
5.900890010E-1,1.699883193E-1,-7.541735172E-1,9.636661530E0
5.921031610E-1,9.816227108E-2,-7.948749661E-1,9.639056206E0
5.940868040E-1,2.394201607E-2,-8.236053586E-1,9.643844604E0
5.960704460E-1,-5.267243832E-2,-8.547300100E-1,9.636661530E0
5.980540890E-1,-1.221042871E-1,-8.858546019E-1,9.636661530E0
6.000682490E-1,-1.771709323E-1,-9.002198577E-1,9.651026726E0
6.020824090E-1,-2.370259613E-1,-9.050082564E-1,9.612719536E0
6.040660520E-1,-2.849099934E-1,-8.954314590E-1,9.567230225E0
6.060496940E-1,-3.184288144E-1,-8.762778044E-1,9.595960617E0
6.080638540E-1,-4.094084799E-1,-8.164227605E-1,9.655815125E0
6.100474970E-1,-6.320692301E-1,-6.967126727E-1,9.739612579E0
6.120311400E-1,-8.020575643E-1,-6.105214357E-1,9.849745750E0
6.140147820E-1,-8.930372596E-1,-5.578489900E-1,9.911994934E0
6.160289420E-1,-9.313444495E-1,-5.267243981E-1,9.916783333E0
6.180125850E-1,-9.433154464E-1,-5.075707436E-1,9.780313492E0
6.199962280E-1,-9.074024558E-1,-4.932055473E-1,9.627084732E0
6.220103880E-1,-8.523358107E-1,-4.932055473E-1,9.612719536E0
6.239940300E-1,-8.020575643E-1,-5.147533417E-1,9.696516991E0
6.260081900E-1,-7.517793179E-1,-5.698199868E-1,9.777919769E0
6.279918330E-1,-7.062895298E-1,-6.440402865E-1,9.821015358E0
6.300059930E-1,-6.560112834E-1,-7.254431248E-1,9.825803757E0
6.319896360E-1,-6.033388376E-1,-8.044517636E-1,9.811438560E0
6.339732780E-1,-5.530605912E-1,-8.858546019E-1,9.794678688E0
6.359569210E-1,-5.003881454E-1,-9.744400978E-1,9.811438560E0
6.379710810E-1,-4.285621047E-1,-1.058237195E0,9.756371498E0
6.399547240E-1,-2.657563984E-1,-1.137245774E0,9.583989143E0
6.419383660E-1,-8.858546615E-2,-1.204283476E0,9.483432770E0
6.439220090E-1,3.830722719E-2,-1.268926859E0,9.524134636E0
6.459361690E-1,1.460463107E-1,-1.323993564E0,9.612719536E0
6.479198120E-1,2.250549644E-1,-1.369483352E0,9.684545517E0
6.499034540E-1,2.873041928E-1,-1.410184860E0,9.732429504E0
6.518870970E-1,3.399766386E-1,-1.446097851E0,9.763554573E0
6.539012570E-1,3.591302633E-1,-1.493981838E0,9.787496567E0
6.558848990E-1,3.591302633E-1,-1.522712231E0,9.811438560E0
6.578685420E-1,3.591302633E-1,-1.561019540E0,9.806650162E0
6.598521850E-1,3.782838583E-1,-1.561019540E0,9.715670586E0
6.618663450E-1,3.998316824E-1,-1.539471745E0,9.706093788E0
6.638499870E-1,3.998316824E-1,-1.537077546E0,9.818621635E0
6.658336300E-1,3.734954596E-1,-1.558625340E0,9.971850395E0
6.678477900E-1,3.519476354E-1,-1.575384736E0,1.010113716E1
