"Time (s)","Acceleration x (m/s^2)","Acceleration y (m/s^2)","Acceleration z (m/s^2)"
1.928083000E-2,5.018142700E0,2.534225464E0,8.404312134E0
2.181378900E-2,5.101928711E0,2.573730469E0,8.336074829E0
2.434674800E-2,5.097137451E0,2.577331543E0,8.211578369E0
2.687970700E-2,5.055252075E0,2.568939209E0,8.076309204E0
2.941266600E-2,5.007369995E0,2.597671509E0,7.905120850E0
3.194562500E-2,4.951095581E0,2.624008179E0,7.750701904E0
3.447858400E-2,4.965469360E0,2.598876953E0,7.595077515E0
3.701154300E-2,4.928359985E0,2.633590698E0,7.482543945E0
3.957501900E-2,4.849349976E0,2.580917358E0,7.376007080E0
4.210797800E-2,4.806243896E0,2.517471313E0,7.299392700E0
4.464093700E-2,4.680557251E0,2.434875488E0,7.180877686E0
4.717389600E-2,4.612319946E0,2.382202148E0,7.095886230E0
4.970685500E-2,4.521347046E0,2.309173584E0,7.075531006E0
5.223981400E-2,4.402832031E0,2.244537354E0,7.113845825E0
5.480329100E-2,4.281921387E0,2.191864014E0,7.179672241E0
5.733625000E-2,4.138259888E0,2.137985229E0,7.329315186E0
5.986920900E-2,4.018554688E0,1.983566284E0,7.433471680E0
6.243268500E-2,3.877304077E0,1.893783569E0,7.514862061E0
6.496564400E-2,3.815048218E0,1.814773560E0,7.690841675E0
6.749860300E-2,3.698928833E0,1.726181030E0,7.806961060E0
7.003156200E-2,3.558868408E0,1.642395020E0,7.817733765E0
7.256452100E-2,3.439163208E0,1.538238525E0,7.893157959E0
7.509748000E-2,3.387680054E0,1.520278931E0,7.924270630E0
7.766095700E-2,3.327835083E0,1.478393555E0,7.942230225E0
8.019391600E-2,3.270370483E0,1.461624146E0,7.963775635E0
8.272687500E-2,3.163833618E0,1.448455811E0,7.948211670E0
8.525983400E-2,3.097991943E0,1.419723511E0,7.911102295E0
8.782331000E-2,3.020172119E0,1.399383545E0,7.895553589E0
9.035626900E-2,2.977081299E0,1.381423950E0,7.926666260E0
9.288922800E-2,2.894485474E0,1.358673096E0,7.833297729E0
9.545270500E-2,2.832229614E0,1.367050171E0,7.773437500E0
9.798566400E-2,2.852584839E0,1.359878540E0,7.712387085E0
1.005186230E-1,2.848983765E0,1.357482910E0,7.627395630E0
1.030515820E-1,2.798706055E0,1.364669800E0,7.507690430E0
1.055845410E-1,2.769973755E0,1.286849976E0,7.378402710E0
1.081175000E-1,2.677810669E0,1.212631226E0,7.261077881E0
1.106809760E-1,2.695755005E0,1.158767700E0,7.124618530E0
1.132139350E-1,2.634704590E0,1.131225586E0,6.986953735E0
1.157468940E-1,2.611968994E0,1.116867065E0,6.828933716E0
1.182798530E-1,2.661041260E0,1.097702026E0,6.678100586E0
1.208128120E-1,2.655059814E0,1.078552246E0,6.518875122E0
1.233762890E-1,2.671813965E0,1.061798096E0,6.433883667E0
1.259092480E-1,2.749633789E0,1.060592651E0,6.280654907E0
1.284422070E-1,2.804702759E0,1.127639771E0,6.150177002E0
1.309751660E-1,2.846588135E0,1.177917480E0,6.036453247E0
1.335386420E-1,2.959121704E0,1.216217041E0,6.056793213E0
1.360716010E-1,3.051300049E0,1.282058716E0,6.030456543E0
1.386045600E-1,3.151855469E0,1.316772461E0,5.992156982E0
1.411680370E-1,3.222488403E0,1.349105835E0,5.973007202E0
1.437009960E-1,3.372116089E0,1.416137695E0,6.046020508E0
1.462339550E-1,3.443954468E0,1.507110596E0,6.138198853E0
1.487669140E-1,3.551681519E0,1.563385010E0,6.207626343E0
1.512998730E-1,3.657028198E0,1.634017944E0,6.267486572E0
1.538633490E-1,3.697738647E0,1.711822510E0,6.381210327E0
1.563963080E-1,3.665405273E0,1.747741699E0,6.506912231E0
1.589292670E-1,3.613937378E0,1.781250000E0,6.576339722E0
1.614622260E-1,3.509796143E0,1.741744995E0,6.668518066E0
1.640257030E-1,3.380508423E0,1.711822510E0,6.716400146E0
1.665586620E-1,3.307479858E0,1.667526245E0,6.765487671E0
1.690916210E-1,3.217697144E0,1.650772095E0,6.809768677E0
1.716245800E-1,3.100387573E0,1.586120605E0,6.895965576E0
1.741880560E-1,2.962707520E0,1.504730225E0,6.953430176E0
1.767210150E-1,2.786743164E0,1.434097290E0,6.990539551E0
1.792539740E-1,2.688583374E0,1.365859985E0,7.044403076E0
1.817869330E-1,2.604782104E0,1.328750610E0,7.161727905E0
1.843198920E-1,2.522186279E0,1.328750610E0,7.228759766E0
1.868833690E-1,2.523376465E0,1.304809570E0,7.349670410E0
1.894163280E-1,2.512603760E0,1.298828125E0,7.511276245E0
1.919492870E-1,2.525772095E0,1.301223755E0,7.591476440E0
1.944822460E-1,2.485076904E0,1.285659790E0,7.587890625E0
1.970457220E-1,2.488662720E0,1.218612671E0,7.598663330E0
1.995786810E-1,2.476684570E0,1.162353516E0,7.630981445E0
2.021421580E-1,2.416839600E0,1.139602661E0,7.536422729E0
2.046751170E-1,2.415634155E0,1.131225586E0,7.387969971E0
2.072385930E-1,2.383316040E0,1.175521851E0,7.241928101E0
2.097715520E-1,2.373733521E0,1.203048706E0,6.967788696E0
2.123045110E-1,2.449157715E0,1.228195190E0,6.776260376E0
2.148374700E-1,2.480285645E0,1.264099121E0,6.473388672E0
2.173704290E-1,2.489852905E0,1.279663086E0,6.200454712E0
2.199339060E-1,2.526962280E0,1.276077271E0,5.955047607E0
2.224668650E-1,2.602386475E0,1.240158081E0,5.847305298E0
2.249998240E-1,2.650268555E0,1.223403931E0,5.744354248E0
2.275327830E-1,2.719696045E0,1.171936035E0,5.729995728E0
2.300962590E-1,2.789138794E0,1.180313110E0,5.837722778E0
2.326292180E-1,2.815475464E0,1.145599365E0,6.081939697E0
2.351621770E-1,2.820266724E0,1.074966431E0,6.315368652E0
2.376951360E-1,2.878921509E0,1.080947876E0,6.524871826E0
2.402280950E-1,2.911239624E0,1.060592651E0,6.903152466E0
2.427915720E-1,2.864547729E0,1.104888916E0,7.130599976E0
2.453245310E-1,2.823852539E0,1.073760986E0,7.409530640E0
2.478574900E-1,2.844207764E0,1.090530396E0,7.601058960E0
2.503904490E-1,2.877716064E0,1.134826660E0,7.863220215E0
2.529539250E-1,2.917221069E0,1.079757690E0,8.034408569E0
2.554868840E-1,2.980667114E0,1.036651611E0,8.255874634E0
2.580198430E-1,2.995040894E0,1.018707275E0,8.376785278E0
2.605528020E-1,2.967498779E0,9.923706055E-1,8.488113403E0
2.630857610E-1,2.998626709E0,8.786468506E-1,8.553955078E0
2.656492380E-1,3.026153564E0,7.337951660E-1,8.620986938E0
2.681821970E-1,3.014190674E0,5.446472168E-1,8.634155273E0
2.707151560E-1,3.002212524E0,3.339538574E-1,8.629364014E0
2.732481150E-1,3.004608154E0,9.693908691E-2,8.580291748E0
2.758115910E-1,2.972290039E0,-5.389404297E-2,8.564727783E0
2.783445500E-1,2.870544434E0,-2.107238770E-1,8.461776733E0
2.808775090E-1,2.798706055E0,-2.645874023E-1,8.377975464E0
2.834104680E-1,2.689773560E0,-3.819122314E-1,8.281005859E0
2.859434270E-1,2.605972290E0,-4.980316162E-1,8.070327759E0
2.885069040E-1,2.474304199E0,-6.320953369E-1,7.828506470E0
2.910398630E-1,2.311492920E0,-7.865295410E-1,7.608245850E0
2.935728220E-1,2.243255615E0,-8.571624756E-1,7.379592896E0
2.961057810E-1,2.153472900E0,-1.018768311E0,7.075531006E0
2.986692570E-1,2.103195190E0,-1.131286621E0,6.748718262E0
3.012022160E-1,2.147491455E0,-1.193542480E0,6.454238892E0
3.037351750E-1,2.216918945E0,-1.294097900E0,6.111862183E0
3.062681340E-1,2.195373535E0,-1.352752686E0,5.715621948E0
3.088010930E-1,2.258819580E0,-1.430572510E0,5.295440674E0
3.113340520E-1,2.342620850E0,-1.482040405E0,4.888427734E0
3.138975290E-1,2.425216675E0,-1.608932495E0,4.553237915E0
3.164304880E-1,2.470703125E0,-1.669982910E0,4.204879761E0
3.189634470E-1,2.555694580E0,-1.695129395E0,3.905609131E0
3.215269230E-1,2.627532959E0,-1.775329590E0,3.596755981E0
3.240598820E-1,2.758010864E0,-1.750198364E0,3.345367432E0
3.265928410E-1,2.895675659E0,-1.697525024E0,3.123901367E0
3.291258000E-1,3.063278198E0,-1.666397095E0,2.931167603E0
3.316587590E-1,3.246429443E0,-1.625701904E0,2.789916992E0
3.342222360E-1,3.495422363E0,-1.552673340E0,2.586410522E0
3.367551950E-1,3.818634033E0,-1.604141235E0,2.510986328E0
3.392881540E-1,4.146652222E0,-1.610137939E0,2.378112793E0
3.418211130E-1,4.479446411E0,-1.608932495E0,2.338607788E0
3.443845890E-1,4.787094116E0,-1.632873535E0,2.436767578E0
3.469175480E-1,5.190521240E0,-1.648437500E0,2.610351562E0
3.494505070E-1,5.526901245E0,-1.653228760E0,2.831802368E0
3.519834660E-1,5.819000244E0,-1.641250610E0,3.097564697E0
3.545469430E-1,6.143417358E0,-1.630477905E0,3.380081177E0
3.570799020E-1,6.398391724E0,-1.616119385E0,3.761962891E0
3.596128610E-1,6.619857788E0,-1.635269165E0,4.121093750E0
3.621458200E-1,6.788650513E0,-1.679565430E0,4.403610229E0
3.646787790E-1,6.998138428E0,-1.733428955E0,4.743576050E0
3.672422550E-1,7.165740967E0,-1.763366699E0,5.034469604E0
3.697752140E-1,7.298614502E0,-1.802871704E0,5.321777344E0
3.723081730E-1,7.443466187E0,-1.883071899E0,5.569580078E0
3.748411320E-1,7.526062012E0,-1.966873169E0,5.747940063E0
3.773740910E-1,7.581130981E0,-2.150024414E0,6.006515503E0
3.799375680E-1,7.591903687E0,-2.326004028E0,6.226791382E0
3.824705270E-1,7.550003052E0,-2.539077759E0,6.399169922E0
3.850034860E-1,7.545211792E0,-2.662384033E0,6.632598877E0
3.875364450E-1,7.559585571E0,-2.768920898E0,6.827728271E0
3.900999210E-1,7.703231812E0,-2.905395508E0,6.899551392E0
3.926328800E-1,7.918716431E0,-2.984405518E0,6.998916626E0
3.951658390E-1,8.092285156E0,-2.977218628E0,7.142562866E0
3.976987980E-1,8.257492065E0,-3.046661377E0,7.185668945E0
4.002317570E-1,8.470581055E0,-3.004760742E0,7.219177246E0
4.027952340E-1,8.586700439E0,-2.987991333E0,7.228759766E0
4.053281930E-1,8.653732300E0,-3.009536743E0,7.179672241E0
4.078611520E-1,8.765060425E0,-3.040664673E0,7.148559570E0
4.103941110E-1,8.887161255E0,-3.055038452E0,7.129394531E0
4.129575870E-1,8.956604004E0,-3.074188232E0,7.000122070E0
4.154905460E-1,9.079895020E0,-3.047851562E0,6.906738281E0
4.180235050E-1,9.228332520E0,-3.023910522E0,6.818161011E0
4.205564640E-1,9.360015869E0,-3.064605713E0,6.657745361E0
4.230894230E-1,9.480926514E0,-3.052642822E0,6.534439087E0
4.256529000E-1,9.728729248E0,-3.070602417E0,6.451843262E0
4.281858590E-1,9.948989868E0,-3.045455933E0,6.380020142E0
4.307188180E-1,1.014172363E1,-3.028701782E0,6.356079102E0
4.332517770E-1,1.041944885E1,-2.987991333E0,6.365646362E0
4.358152540E-1,1.062774658E1,-2.964050293E0,6.374023438E0
4.383482120E-1,1.078576660E1,-2.959259033E0,6.420715332E0
4.408811710E-1,1.094378662E1,-2.961654663E0,6.456634521E0
4.434141300E-1,1.106948853E1,-2.983200073E0,6.546417236E0
4.459776070E-1,1.119158936E1,-3.032287598E0,6.570358276E0
4.485105660E-1,1.130770874E1,-3.142425537E0,6.639785767E0
4.510435250E-1,1.132206726E1,-3.264526367E0,6.728378296E0
4.535764840E-1,1.126820374E1,-3.423736572E0,6.739151001E0
4.561094430E-1,1.115567017E1,-3.597320557E0,6.748718262E0
4.586729200E-1,1.105271912E1,-3.707458496E0,6.710418701E0
4.612058790E-1,1.096772766E1,-3.839141846E0,6.624221802E0
4.637388370E-1,1.094378662E1,-3.998352051E0,6.521270752E0
4.662717960E-1,1.100125122E1,-4.137207031E0,6.472198486E0
4.688352730E-1,1.109820557E1,-4.308395386E0,6.433883667E0
4.713682320E-1,1.121313477E1,-4.449661255E0,6.520080566E0
4.739011910E-1,1.142382812E1,-4.620834351E0,6.577545166E0
4.764341500E-1,1.164169312E1,-4.716613770E0,6.728378296E0
4.789671090E-1,1.183323669E1,-4.709426880E0,6.929489136E0
4.815305860E-1,1.199005127E1,-4.734573364E0,7.064758301E0
4.840635450E-1,1.219116211E1,-4.738159180E0,7.245513916E0
4.865965040E-1,1.234199524E1,-4.629226685E0,7.364028931E0
4.891599800E-1,1.250480652E1,-4.559783936E0,7.490921021E0
4.917234570E-1,1.262690735E1,-4.540634155E0,7.508880615E0
4.942564160E-1,1.270472717E1,-4.574157715E0,7.474166870E0
4.967893750E-1,1.278492737E1,-4.610061646E0,7.392761230E0
4.993223340E-1,1.276817322E1,-4.654357910E0,7.271850586E0
5.018552930E-1,1.270233154E1,-4.739349365E0,7.099472046E0
5.044187690E-1,1.263049316E1,-4.830337524E0,6.846893311E0
5.069517280E-1,1.254191589E1,-4.849487305E0,6.570358276E0
5.094846870E-1,1.239227295E1,-4.953628540E0,6.287841797E0
5.120176460E-1,1.267718506E1,-4.911743164E0,5.613876343E0
5.145506050E-1,3.161293030E1,1.577743530E0,-2.354750061E1
5.171140820E-1,3.333676147E1,5.938781738E0,-2.563883972E1
5.196470410E-1,2.167819214E1,5.443191528E0,-7.202285767E0
5.221800000E-1,1.867466736E1,3.737319946E0,5.597076416E-1
5.247129590E-1,2.046073914E1,2.650344849E0,5.453491211E-2
5.272764350E-1,2.031230164E1,1.529861450E0,-1.034851074E-1
5.298093940E-1,1.590576172E1,-5.997772217E-1,5.788726807E-1
5.323423530E-1,9.820907593E0,-3.750549316E0,3.856521606E0
5.348753120E-1,7.704437256E0,-6.286010742E0,7.544799805E0
5.374387890E-1,8.549591064E0,-7.746475220E0,9.516418457E0
5.399717480E-1,1.059303284E1,-8.057723999E0,8.911880493E0
5.425047070E-1,1.263528442E1,-7.453186035E0,7.026443481E0
5.450376660E-1,1.272985840E1,-6.525436401E0,6.893569946E0
5.475706250E-1,1.172309875E1,-5.558166504E0,7.162918091E0
5.501035840E-1,1.114010620E1,-4.612457275E0,7.714782715E0
5.526670600E-1,1.073190308E1,-3.906173706E0,8.015258789E0
5.552000190E-1,1.068521118E1,-3.500350952E0,8.464172363E0
5.577329780E-1,1.101681519E1,-3.452468872E0,9.078277588E0
5.602964550E-1,1.145016479E1,-3.738571167E0,9.600219727E0
5.628294140E-1,1.184999084E1,-4.027084351E0,9.719924927E0
5.653623730E-1,1.204751587E1,-4.224594116E0,9.413467407E0
5.678953320E-1,1.207743835E1,-4.313186646E0,8.958572388E0
5.704588080E-1,1.187632751E1,-4.272491455E0,8.476135254E0
5.729917670E-1,1.160218811E1,-4.090530396E0,7.822525024E0
5.755247260E-1,1.130770874E1,-3.915756226E0,6.989334106E0
5.780576850E-1,1.098089600E1,-3.775695801E0,6.269882202E0
5.805906440E-1,1.060261536E1,-3.774490356E0,5.879623413E0
5.831541210E-1,1.028657532E1,-3.833145142E0,5.896392822E0
5.856870800E-1,1.001364136E1,-3.890609741E0,5.898788452E0
5.882200390E-1,9.753860474E0,-4.030670166E0,5.527679443E0
5.907529980E-1,9.504867554E0,-4.086929321E0,5.154190063E0
5.933164740E-1,9.209182739E0,-4.191085815E0,4.786682129E0
5.958494330E-1,8.935043335E0,-4.235382080E0,4.438323975E0
5.983823920E-1,8.698028564E0,-4.294036865E0,4.066024780E0
6.009153510E-1,8.514862061E0,-4.357482910E0,3.735626221E0
6.034483100E-1,8.378402710E0,-4.442474365E0,3.418395996E0
6.060117870E-1,8.256286621E0,-4.514297485E0,3.114318848E0
6.085447460E-1,8.170104980E0,-4.535842896E0,2.886871338E0
6.110777050E-1,8.153350830E0,-4.571762085E0,2.739639282E0
6.136106640E-1,8.113845825E0,-4.576553345E0,2.634292603E0
6.161741400E-1,8.081512451E0,-4.622039795E0,2.552886963E0
6.187070990E-1,8.105453491E0,-4.648376465E0,2.585205078E0
6.212400580E-1,8.178482056E0,-4.680694580E0,2.667800903E0
6.237730170E-1,8.265869141E0,-4.728576660E0,2.793502808E0
6.263059760E-1,8.338897705E0,-4.774063110E0,2.953918457E0
6.288694530E-1,8.408325195E0,-4.798019409E0,3.133483887E0
6.314024120E-1,8.476562500E0,-4.856674194E0,3.398040771E0
6.339353710E-1,8.613037109E0,-4.862655640E0,3.720062256E0
6.364683300E-1,8.706405640E0,-4.818359375E0,4.122283936E0
6.390318060E-1,8.870407104E0,-4.760894775E0,4.549652100E0
6.415647650E-1,9.117004395E0,-4.662734985E0,4.990188599E0
6.440977240E-1,9.330093384E0,-4.534652710E0,5.360092163E0
6.466306830E-1,9.579086304E0,-4.438888550E0,5.759918213E0
6.491636420E-1,9.781402588E0,-4.392196655E0,6.090316772E0
6.517271190E-1,9.951385498E0,-4.370651245E0,6.318969727E0
6.542600780E-1,1.009265137E1,-4.315582275E0,6.484161377E0
6.567930370E-1,1.019081116E1,-4.302413940E0,6.596694946E0
6.593259960E-1,1.025784302E1,-4.296432495E0,6.613449097E0
6.618894720E-1,1.031530762E1,-4.308395386E0,6.490142822E0
6.644224310E-1,1.043382263E1,-4.212631226E0,6.363250732E0
6.669553900E-1,1.053437805E1,-4.134811401E0,6.091522217E0
6.694883490E-1,1.050445557E1,-4.021087646E0,5.910751343E0
6.720213080E-1,1.056669617E1,-3.938491821E0,5.582748413E0
6.745847850E-1,1.071752930E1,-3.787658691E0,5.151794434E0
6.771177440E-1,1.085400391E1,-3.756530762E0,4.729217529E0
6.796507030E-1,1.099047852E1,-3.773300171E0,4.210876465E0
6.821836620E-1,1.109820557E1,-3.711044312E0,3.705688477E0
6.847471380E-1,1.122271729E1,-3.723022461E0,3.254379272E0
6.872800970E-1,1.137115479E1,-3.621261597E0,2.713302612E0
6.898130560E-1,1.177098083E1,-3.505142212E0,2.065658569E0
6.923460150E-1,1.259938049E1,-3.560211182E0,9.990539551E-1
6.949094920E-1,1.344453430E1,-3.901382446E0,-3.357238770E-1
6.974424510E-1,1.373542786E1,-4.182708740E0,-1.420288086E0
6.999754100E-1,1.334756470E1,-4.121643066E0,-2.022430420E0
7.025083690E-1,1.283280945E1,-3.866668701E0,-2.373184204E0
7.050413280E-1,1.275859070E1,-3.236999512E0,-4.589019775E0
7.076048040E-1,1.405624390E1,-2.472045898E0,-1.090971375E1
7.101377630E-1,1.415081787E1,-1.534713745E0,-1.323567200E1
7.126707220E-1,1.336791992E1,-7.386474609E-1,-1.503492737E1
7.152036810E-1,1.297526550E1,-5.662536621E-1,-1.577113342E1
7.177671580E-1,1.304948425E1,-1.174392700E0,-1.388450623E1
7.203001170E-1,1.360015869E1,-2.596542358E0,-8.277282715E0
7.228330760E-1,1.367437744E1,-3.314804077E0,-6.171585083E0
7.253660350E-1,1.202716064E1,-3.531478882E0,-8.361083984E0
7.278989940E-1,1.019081116E1,-4.027084351E0,-7.175949097E0
7.304624700E-1,9.492904663E0,-4.619644165E0,-4.535156250E0
7.329954290E-1,9.775421143E0,-5.221786499E0,-1.968566895E0
7.355283880E-1,1.057746887E1,-5.649154663E0,7.728576660E-2
7.380613470E-1,1.181048584E1,-5.871810913E0,2.097991943E0
7.406248240E-1,1.258621216E1,-6.010681152E0,4.220443726E0
7.431577830E-1,1.212532043E1,-6.040603638E0,5.046447754E0
7.456907420E-1,1.145614624E1,-6.033416748E0,5.617462158E0
7.482237010E-1,1.036798096E1,-5.971176147E0,5.258331299E0
7.507566600E-1,9.533599854E0,-6.046585083E0,4.414382935E0
7.533201360E-1,8.817733765E0,-6.050186157E0,3.587173462E0
7.558530950E-1,8.249114990E0,-6.204605103E0,3.109542847E0
7.583860540E-1,7.696044922E0,-6.452407837E0,2.564849854E0
7.609190130E-1,7.111862183E0,-6.651123047E0,1.932785034E0
7.634824900E-1,6.713226318E0,-6.774429321E0,1.349792480E0
7.660154490E-1,6.482192993E0,-6.938430786E0,1.261215210E0
7.685484080E-1,6.283477783E0,-6.907302856E0,1.694564819E0
7.710813670E-1,6.208053589E0,-6.845062256E0,2.442749023E0
7.736143260E-1,6.257141113E0,-6.763656616E0,3.198120117E0
7.761778020E-1,6.336151123E0,-6.719360352E0,3.912796021E0
7.787412790E-1,6.424728394E0,-6.582885742E0,4.328186035E0
7.812742380E-1,6.556411743E0,-6.427261353E0,4.611892700E0
7.838071970E-1,6.773086548E0,-6.376983643E0,4.933914185E0
7.863706730E-1,7.072357178E0,-6.201019287E0,5.223617554E0
7.889036320E-1,7.216018677E0,-6.129180908E0,5.476211548E0
7.914365910E-1,7.259109497E0,-5.941238403E0,5.403182983E0
7.939695500E-1,7.329742432E0,-5.730560303E0,5.264312744E0
7.965025090E-1,7.324951172E0,-5.554580688E0,4.887237549E0
7.990659860E-1,7.229187012E0,-5.529434204E0,4.001373291E0
8.015989450E-1,7.178909302E0,-5.349868774E0,3.225662231E0
8.041319040E-1,7.275863647E0,-5.068557739E0,3.146652222E0
8.066648630E-1,7.174118042E0,-5.042221069E0,2.819839478E0
8.092283390E-1,6.984970093E0,-5.072143555E0,2.437957764E0
8.117612980E-1,6.697662354E0,-5.055389404E0,2.074050903E0
8.142942570E-1,6.428314209E0,-5.098480225E0,1.766387939E0
8.168272160E-1,6.017715454E0,-5.149963379E0,1.394088745E0
8.193601750E-1,5.919555664E0,-5.275650024E0,1.383316040E0
8.219236520E-1,5.590347290E0,-5.372619629E0,1.547317505E0
8.244566110E-1,5.246780396E0,-5.574935913E0,1.865753174E0
8.269895700E-1,4.825408936E0,-5.792800903E0,2.315856934E0
8.295225290E-1,4.540496826E0,-5.844284058E0,2.615127563E0
8.320860050E-1,4.382476807E0,-6.005889893E0,3.199325562E0
8.346189640E-1,4.108337402E0,-6.083694458E0,3.585983276E0
8.371519230E-1,4.001800537E0,-6.133972168E0,3.747589111E0
8.396848820E-1,3.962295532E0,-6.214187622E0,3.918777466E0
8.422178410E-1,3.752807617E0,-6.126800537E0,3.910400391E0
8.447813180E-1,3.833007812E0,-6.025039673E0,3.935531616E0
8.473142770E-1,4.058059692E0,-5.855056763E0,4.076797485E0
8.498472360E-1,3.921585083E0,-5.724563599E0,3.823013306E0
8.523801950E-1,4.104751587E0,-5.419311523E0,3.676956177E0
8.549436710E-1,4.511764526E0,-5.102081299E0,3.785903931E0
8.574766300E-1,4.856521606E0,-4.871032715E0,3.808639526E0
8.600095890E-1,4.924758911E0,-4.637603760E0,3.802658081E0
8.625425480E-1,5.032501221E0,-4.369445801E0,3.680557251E0
8.650755070E-1,5.276702881E0,-4.067779541E0,3.518951416E0
8.676389840E-1,5.513732910E0,-3.907363892E0,3.448318481E0
8.701719430E-1,5.718444824E0,-3.811599731E0,3.342971802E0
8.727049020E-1,5.871673584E0,-3.732589722E0,3.273544312E0
8.752378610E-1,5.951873779E0,-3.683517456E0,3.255584717E0
8.778013370E-1,5.944686890E0,-3.563796997E0,3.255584717E0
8.803342960E-1,5.850128174E0,-3.581756592E0,3.256774902E0
8.828672550E-1,5.677734375E0,-3.711044312E0,2.979049683E0
8.854002140E-1,5.501770020E0,-3.724212646E0,2.894058228E0
8.879331730E-1,5.252761841E0,-3.605697632E0,2.759979248E0
8.904966500E-1,4.840972900E0,-3.484786987E0,2.454727173E0
