"Time (s)","X (rad/s)","Y (rad/s)","Z (rad/s)"
3.871374996E-3,-4.554665387E-1,-1.996291518E0,-2.369082272E-1
1.386437495E-2,-6.529133320E-1,-2.478697538E0,-1.789807379E-1
2.385637502E-2,-8.400714993E-1,-2.896870852E0,-5.744875222E-2
3.384837497E-2,-1.124764204E0,-3.075322866E0,1.499225497E-1
4.384037503E-2,-1.455425143E0,-3.170829773E0,4.088427722E-1
5.383237498E-2,-1.695432186E0,-3.313030720E0,5.766419172E-1
6.382437504E-2,-1.771353960E0,-3.359914064E0,4.904529154E-1
7.381637499E-2,-1.767085433E0,-3.371584892E0,1.506343782E-1
8.380837494E-2,-1.736444950E0,-3.256342173E0,-2.843058705E-1
9.380137501E-2,-1.726009369E0,-2.967341185E0,-6.325013638E-1
1.037933750E-1,-1.722414494E0,-2.558594942E0,-6.820494533E-1
1.137853750E-1,-1.647537231E0,-2.189979792E0,-2.886267602E-1
1.237773750E-1,-1.532931447E0,-2.076217175E0,2.479789704E-1
1.337693750E-1,-1.320362806E0,-2.271653891E0,6.930488348E-1
1.437613750E-1,-1.061115623E0,-2.683146238E0,9.189220071E-1
1.537533749E-1,-8.373363614E-1,-3.108318806E0,8.997744322E-1
1.637453750E-1,-6.621767879E-1,-3.158353806E0,7.153820395E-1
1.737373749E-1,-6.159411073E-1,-2.745816469E0,4.574027061E-1
1.837303750E-1,-6.112940907E-1,-2.255392790E0,3.758784831E-1
1.937223750E-1,-6.203134060E-1,-1.893620968E0,5.244461298E-1
2.037143750E-1,-8.421796560E-1,-1.649142742E0,6.107096076E-1
2.137063750E-1,-1.246070147E0,-1.545760393E0,5.548764467E-1
2.236983749E-1,-1.725050092E0,-1.566678643E0,5.129069686E-1
2.336903750E-1,-2.191857576E0,-1.523849964E0,5.184242129E-1
2.436823749E-1,-2.478624344E0,-1.439835787E0,5.016022921E-1
2.536743750E-1,-2.550029278E0,-1.351196766E0,4.062743783E-1
2.636673750E-1,-2.441719294E0,-1.209283113E0,2.638154626E-1
2.736593750E-1,-2.187088966E0,-1.081360102E0,2.042019367E-1
2.836513750E-1,-1.831126213E0,-1.051129460E0,3.327425420E-1
2.936433750E-1,-1.470972538E0,-1.087196708E0,5.556235313E-1
3.036353750E-1,-1.147049427E0,-1.123600960E0,7.228321433E-1
3.136273749E-1,-8.406938314E-1,-1.135518074E0,7.779260278E-1
3.236193750E-1,-5.258788466E-1,-1.076828599E0,7.207919359E-1
3.336113750E-1,-2.533554733E-1,-1.038944602E0,5.929220915E-1
3.436043750E-1,-7.008750737E-2,-1.056380033E0,4.405458570E-1
3.535963750E-1,-2.561993897E-3,-1.079789996E0,3.460968435E-1
3.635883750E-1,-7.924877107E-2,-1.100674152E0,3.260726333E-1
3.735803750E-1,-2.174524367E-1,-1.128425598E0,3.423501253E-1
3.835723749E-1,-3.219456077E-1,-1.190697789E0,4.176971316E-1
3.935643750E-1,-4.070317447E-1,-1.223936081E0,5.145837665E-1
4.035563749E-1,-4.728631973E-1,-1.256159186E0,5.401277542E-1
4.135483750E-1,-4.217515290E-1,-1.399698973E0,5.055998564E-1
4.235403750E-1,-2.029741704E-1,-1.503585577E0,3.208868802E-1
4.335333750E-1,1.802411228E-1,-1.287973166E0,-7.713533193E-2
4.435253750E-1,4.699188173E-1,-1.382462144E0,-4.912793636E-2
4.535173749E-1,5.034048557E-1,-1.589416862E0,3.342133164E-1
4.635093750E-1,3.055489361E-1,-1.663062453E0,8.100678325E-1
4.735013749E-1,-8.640792966E-2,-1.837199807E0,1.248038888E0
4.834933750E-1,-5.796936154E-1,-2.214581013E0,1.575104117E0
4.934853750E-1,-9.910883307E-1,-2.637869596E0,1.694351196E0
5.034773750E-1,-1.145462275E0,-2.925626516E0,1.660683513E0
5.134703750E-1,-1.029444933E0,-3.043579578E0,1.655170202E0
5.234623750E-1,-7.538204193E-1,-3.008767128E0,1.700323343E0
5.334543750E-1,-4.467773736E-1,-2.783684492E0,1.695455551E0
5.434463749E-1,-1.293016076E-1,-2.385417461E0,1.504821301E0
5.534383750E-1,1.620130539E-1,-1.917625904E0,1.087156415E0
5.634303750E-1,3.839348853E-1,-1.541989207E0,5.879346132E-1
5.734223750E-1,4.864569902E-1,-1.524337173E0,2.465048879E-1
5.834143750E-1,4.395435154E-1,-1.881420970E0,1.496069282E-1
5.934063750E-1,2.782845795E-1,-2.342895746E0,2.273299545E-1
6.033993750E-1,6.354176998E-2,-2.570770264E0,4.024290740E-1
6.133913749E-1,-1.843697727E-1,-2.447669268E0,5.898528099E-1
6.233833750E-1,-4.371392429E-1,-2.096498013E0,7.569873333E-1
6.333753749E-1,-6.703562737E-1,-1.682824969E0,8.588913679E-1
6.433673750E-1,-8.588007689E-1,-1.306299448E0,8.329650760E-1
6.533593750E-1,-9.700229168E-1,-1.059091210E0,6.544917226E-1
6.633513750E-1,-9.898507595E-1,-9.670710564E-1,3.547804058E-1
6.733433750E-1,-9.130209684E-1,-1.102898002E0,2.474979497E-2
6.833363749E-1,-7.810994387E-1,-1.414982438E0,-2.486405522E-1
6.933283750E-1,-6.286566257E-1,-1.780012012E0,-3.529357910E-1
7.033203749E-1,-4.234744310E-1,-2.133652925E0,-3.157514930E-1
7.133123750E-1,-2.151859254E-1,-2.278677464E0,-2.949271798E-1
7.233043750E-1,-5.174713582E-2,-2.149088860E0,-2.701304555E-1
7.332963750E-1,3.249584138E-2,-1.821540713E0,-1.403349191E-1
7.432883750E-1,6.218052655E-2,-1.475458384E0,8.274434507E-2
7.532803750E-1,7.219348103E-2,-1.216860890E0,2.882556915E-1
7.632722500E-1,6.307972968E-2,-1.043012619E0,4.009827375E-1
7.732652500E-1,6.436151266E-2,-9.875648022E-1,4.443176687E-1
7.832572500E-1,9.509015828E-2,-1.054642439E0,4.407334626E-1
7.932492500E-1,1.209771484E-1,-1.210362554E0,3.760599196E-1
8.032412500E-1,1.260833442E-1,-1.342879891E0,2.526572645E-1
8.132332499E-1,9.750869125E-2,-1.392348886E0,1.135030985E-1
8.232252500E-1,3.951138631E-2,-1.366415858E0,-1.945007034E-2
8.332172500E-1,-3.662705794E-2,-1.355200529E0,-1.576122046E-1
8.432092500E-1,-1.048221812E-1,-1.355080247E0,-2.832986414E-1
8.532022500E-1,-1.577226818E-1,-1.339944243E0,-3.696148694E-1
8.631942500E-1,-1.782503277E-1,-1.228953600E0,-4.144296944E-1
8.731862500E-1,-1.756753176E-1,-9.770579934E-1,-3.823146224E-1
8.831782499E-1,-1.270601749E-1,-7.117576003E-1,-2.252387255E-1
8.931702500E-1,-4.799570888E-2,-5.676392913E-1,-5.617114902E-2
9.031622499E-1,-9.435457177E-4,-5.551000834E-1,-2.552291146E-3
9.131542500E-1,4.572926089E-3,-6.126784682E-1,-3.340873867E-2
9.231462500E-1,-2.232512273E-2,-6.916795373E-1,-7.383336127E-2
9.331392500E-1,-5.755421519E-2,-8.091089725E-1,-1.129165813E-1
9.431312500E-1,-8.186863363E-2,-9.553249478E-1,-1.859858483E-1
9.531232500E-1,-1.006479189E-1,-1.026854038E0,-2.808257937E-1
9.631152500E-1,-1.158054769E-1,-1.004442811E0,-3.440667093E-1
9.731072499E-1,-1.182864755E-1,-9.533157349E-1,-3.691976070E-1
9.830992500E-1,-1.346701384E-1,-8.533125520E-1,-3.517723978E-1
9.930912500E-1,-1.711874008E-1,-6.528694630E-1,-2.633378804E-1
1.003083250E0,-2.040461153E-1,-4.037189782E-1,-8.028934151E-2
1.013076250E0,-2.105346471E-1,-2.177810818E-1,1.258521229E-1
1.023068250E0,-1.944005787E-1,-1.435495466E-1,2.499209493E-1
1.033060250E0,-1.765973419E-1,-1.208309233E-1,2.533873022E-1
1.043052250E0,-1.689010412E-1,-1.124735028E-1,1.857282221E-1
1.053044250E0,-1.562249362E-1,-2.166451663E-1,7.394149154E-2
1.063036250E0,-1.296922863E-1,-4.328367114E-1,-8.307112753E-2
1.073028250E0,-1.098583862E-1,-6.647088528E-1,-2.509669363E-1
1.083020250E0,-1.014457941E-1,-8.510275483E-1,-3.931314945E-1
1.093012250E0,-9.273486584E-2,-9.671840072E-1,-4.883789420E-1
1.103005250E0,-8.265881985E-2,-1.031434536E0,-5.232288837E-1
1.112997250E0,-8.272380382E-2,-1.008495212E0,-4.965376556E-1
1.122989250E0,-9.533674270E-2,-8.728907108E-1,-4.094648659E-1
1.132981250E0,-1.184825376E-1,-6.478506923E-1,-2.634511888E-1
1.142973250E0,-1.487003118E-1,-3.769657612E-1,-9.947644174E-2
1.152965250E0,-1.874628961E-1,-1.509712785E-1,3.695437312E-2
1.162957250E0,-2.377433330E-1,-2.900284156E-2,1.138949543E-1
1.172949250E0,-2.740043998E-1,-3.728660569E-2,1.273172945E-1
1.182942250E0,-2.968056500E-1,-1.490465552E-1,6.707412004E-2
1.192934250E0,-3.024022877E-1,-2.559179068E-1,-2.511972561E-2
1.202926250E0,-2.976397276E-1,-2.908702493E-1,-7.425925881E-2
1.212918250E0,-2.549247742E-1,-3.056718409E-1,-4.768837243E-2
1.222910250E0,-1.862528473E-1,-3.172243536E-1,-8.856869303E-3
1.232902250E0,-1.285011321E-1,-2.675329745E-1,2.569471672E-2
1.242894250E0,-1.164631844E-1,-9.878284484E-2,7.487155497E-2
1.252886250E0,-1.346762776E-1,9.583191574E-2,1.363764703E-1
1.262878250E0,-1.466399729E-1,1.494570971E-1,1.615702659E-1
1.272871250E0,-1.470415741E-1,1.073895320E-1,1.322384775E-1
1.282863250E0,-1.527560353E-1,6.981802732E-2,7.633723319E-2
1.292855250E0,-1.628270447E-1,5.088428408E-2,3.203102574E-2
1.302847250E0,-1.726296693E-1,-3.573409282E-3,-5.421235226E-3
1.312839250E0,-1.272099912E-1,4.190964997E-2,-5.150137842E-2
1.322831250E0,2.962847650E-1,3.402765989E-1,-9.725018591E-2
1.332823250E0,5.050355196E-1,1.646917164E-1,-4.333874583E-2
1.342815250E0,5.375828147E-1,2.500385791E-2,-5.543029681E-2
1.352808250E0,6.040737033E-1,-2.853233740E-2,-1.246599704E-1
1.362800250E0,6.581367254E-1,-8.425241709E-2,-1.246580482E-1
1.372792250E0,6.406708956E-1,-1.093820035E-1,-2.170876600E-2
1.382784250E0,5.288254023E-1,-8.817583323E-2,1.208098903E-1
1.392776250E0,3.510370255E-1,-1.366804726E-2,2.196198255E-1
1.402768250E0,1.587227285E-1,8.103076369E-2,2.770649493E-1
1.412760250E0,-9.301467799E-5,1.494702846E-1,3.122618198E-1
1.422752250E0,-9.618631750E-2,1.899610162E-1,3.347615302E-1
1.432745250E0,-1.295839548E-1,2.131022960E-1,3.379594386E-1
1.442737250E0,-1.262035519E-1,2.158914655E-1,3.376824260E-1
1.452729250E0,-1.171229631E-1,1.835918427E-1,3.290782869E-1
1.462721250E0,-7.599525154E-2,1.700468212E-1,3.147520423E-1
1.472713250E0,1.054976508E-2,1.501007974E-1,2.797101736E-1
1.482705250E0,1.179539859E-1,9.887809306E-2,2.230841815E-1
1.492697250E0,2.548756301E-1,4.542472586E-2,1.629904807E-1
1.502689250E0,3.650826216E-1,-2.102853656E-1,4.447316006E-2
1.512681250E0,5.022311807E-1,-3.550811708E-1,-9.184526652E-2
1.522674250E0,5.802860260E-1,-5.311515927E-1,-1.542366743E-1
1.532666250E0,5.938793421E-1,-6.901643872E-1,-1.595765650E-1
1.542658250E0,5.657525063E-1,-7.269806862E-1,-1.452389807E-1
1.552650250E0,5.462054014E-1,-6.296269298E-1,-1.178214625E-1
1.562642250E0,5.035471916E-1,-4.215640426E-1,-1.025719661E-2
1.572634250E0,4.679338336E-1,-2.214479893E-1,8.736257255E-2
1.582626250E0,4.905362725E-1,-1.882793009E-1,9.340680391E-2
1.592618250E0,5.472338796E-1,-2.138770819E-1,8.129181713E-2
1.602611250E0,5.123313069E-1,-1.826885343E-1,9.827639163E-2
1.612603250E0,3.792861700E-1,-1.876944751E-1,1.273511946E-1
1.622595250E0,2.421780080E-1,-1.658454686E-1,1.022906527E-1
1.632587250E0,1.219908670E-1,-6.724911928E-2,2.089699544E-2
1.642579250E0,1.722940058E-2,4.501513392E-2,-8.214159310E-2
1.652571250E0,-5.840411037E-2,1.375690401E-1,-1.904305220E-1
1.662563250E0,-9.858042002E-2,2.046402842E-1,-2.446897775E-1
1.672555250E0,-1.080399677E-1,2.686520517E-1,-2.232662439E-1
1.682548250E0,-9.338369966E-2,3.235146105E-1,-1.925454885E-1
1.692540250E0,-8.089186996E-2,3.847622573E-1,-1.443366855E-1
1.702532250E0,-7.306380570E-2,4.260397553E-1,-1.331147701E-1
1.712524250E0,-4.892624915E-2,4.400930107E-1,-1.439650208E-1
1.722516250E0,-6.034673424E-4,5.079100132E-1,-1.603225172E-1
1.732508250E0,5.493515730E-2,5.975538492E-1,-2.125620246E-1
1.742500250E0,9.395456314E-2,6.629382968E-1,-2.695876062E-1
1.752492250E0,1.183856055E-1,7.297359705E-1,-3.056281805E-1
1.762485250E0,1.366025507E-1,9.091694355E-1,-3.064154685E-1
1.772477542E0,1.459534317E-1,1.179117322E0,-2.903584540E-1
1.782469542E0,1.945454776E-1,1.408209205E0,-3.183943331E-1
1.792461542E0,2.106109858E-1,1.572097540E0,-3.560996354E-1
1.802453542E0,1.986041516E-1,1.650621295E0,-3.673796058E-1
1.812445542E0,1.911169440E-1,1.699343085E0,-3.754026294E-1
1.822437542E0,1.433126777E-1,1.836800814E0,-4.627141058E-1
1.832429542E0,4.389942624E-3,2.011558533E0,-6.074047089E-1
1.842422542E0,-2.582231760E-1,2.231082439E0,-8.564489484E-1
1.852414542E0,-5.893872380E-1,2.343536139E0,-1.142078280E0
1.862406542E0,-9.472277761E-1,2.413710833E0,-1.375053644E0
1.872398542E0,-1.298153281E0,2.485328913E0,-1.585535526E0
1.882390542E0,-1.539205670E0,2.523818731E0,-1.680196047E0
1.892382542E0,-1.644475579E0,2.534298658E0,-1.596779108E0
1.902374542E0,-1.660767674E0,2.442188263E0,-1.371941924E0
1.912366542E0,-1.536467910E0,2.268193245E0,-1.115508556E0
1.922358542E0,-1.330617428E0,2.030965805E0,-7.720807791E-1
1.932351542E0,-1.170693040E0,1.862155318E0,-3.093773127E-1
1.942343542E0,-9.700615406E-1,1.657119751E0,1.397857219E-1
1.952335542E0,-7.363095284E-1,1.437089920E0,4.462167621E-1
1.962327542E0,-4.276581109E-1,1.432452202E0,6.393464804E-1
1.972319542E0,-1.449196190E-1,1.610503435E0,7.940987945E-1
1.982311542E0,1.360819787E-1,1.688583136E0,9.005632997E-1
1.992303542E0,3.879376650E-1,1.636878371E0,9.264058471E-1
2.002295542E0,5.711401105E-1,1.662872434E0,9.033064246E-1
2.012288542E0,7.184198499E-1,1.761290312E0,8.843716383E-1
2.022280542E0,8.366466165E-1,1.799378991E0,8.301779628E-1
2.032272542E0,9.020956755E-1,1.909510255E0,7.311744094E-1
2.042264542E0,9.791630507E-1,2.045663595E0,6.706955433E-1
2.052256542E0,1.039054036E0,2.125746965E0,6.509953737E-1
2.062248542E0,1.070800662E0,2.063423872E0,6.403072476E-1
2.072240542E0,1.114679933E0,1.990886211E0,6.592928767E-1
2.082232542E0,1.149729013E0,1.938820601E0,7.405588627E-1
2.092225542E0,1.082438946E0,1.827540040E0,8.146919012E-1
2.102217542E0,9.577138424E-1,1.554669142E0,7.176138163E-1
2.112209542E0,8.833631873E-1,1.335386038E0,3.811561763E-1
2.122201542E0,7.583598495E-1,1.204205036E0,-2.695483901E-2
2.132193542E0,6.759904027E-1,1.153380752E0,-4.359500706E-1
2.142185542E0,4.880004227E-1,9.686831236E-1,-8.070924878E-1
2.152177542E0,1.461602747E-1,8.418570161E-1,-1.059632897E0
2.162169542E0,-2.029322386E-1,6.889259219E-1,-1.146247745E0
2.172161542E0,-5.015948415E-1,4.135001898E-1,-1.124980330E0
2.182154542E0,-7.120529413E-1,3.064927645E-2,-9.852940440E-1
2.192146542E0,-7.449821830E-1,-4.035748839E-1,-7.368799448E-1
2.202138542E0,-5.543570518E-1,-4.803793728E-1,-4.823406935E-1
2.212130542E0,-4.346735477E-1,-3.862131834E-1,-2.279430479E-1
2.222122542E0,-4.313882291E-1,-6.652876139E-1,-5.903369561E-2
2.232114542E0,-4.400597513E-1,-8.182263374E-1,-4.309867322E-2
2.242106542E0,-4.784459770E-1,-7.553198934E-1,-2.176072448E-1
2.252098542E0,-5.714193583E-1,-7.011189461E-1,-4.858000875E-1
2.262091542E0,-7.544814348E-1,-7.530117631E-1,-7.318459749E-1
2.272083542E0,-9.234893322E-1,-8.372435570E-1,-9.177021384E-1
2.282075542E0,-9.683001637E-1,-8.402831554E-1,-1.003954053E0
2.292067542E0,-8.612946272E-1,-8.459077477E-1,-1.021004200E0
2.302059542E0,-6.730052233E-1,-7.369199991E-1,-8.974798322E-1
2.312051542E0,-6.453216672E-1,-7.540952563E-1,-6.065715551E-1
2.322043542E0,-8.174431920E-1,-9.277610779E-1,-2.771345079E-1
2.332035542E0,-1.077881217E0,-1.071350932E0,-3.738821298E-2
2.342027542E0,-1.315218449E0,-1.121200323E0,2.042854391E-2
2.352020542E0,-1.523222804E0,-1.125826240E0,3.486394510E-2
2.362012542E0,-1.648047090E0,-1.085812449E0,3.610170633E-2
2.372004542E0,-1.599006653E0,-1.003233433E0,-4.905926064E-2
2.381996542E0,-1.372947693E0,-8.740390539E-1,-1.954864711E-1
2.391988542E0,-1.030614853E0,-3.476023972E-1,-1.619048119E-1
2.401980542E0,-9.559117556E-1,-2.527931333E-1,6.922028959E-2
2.411972542E0,-9.993745089E-1,-3.298290372E-1,3.280813992E-1
2.421964542E0,-1.065122604E0,-2.982155085E-1,4.640136361E-1
2.431957542E0,-1.046765208E0,-1.882996708E-1,4.236808717E-1
2.441949542E0,-9.480870366E-1,-6.779743731E-2,2.891449630E-1
2.451941542E0,-7.693380713E-1,1.198353097E-1,1.356752366E-1
2.461933542E0,-5.972727537E-1,3.167708516E-1,8.694678545E-2
2.471925542E0,-5.208000541E-1,2.672198117E-1,7.509864867E-2
2.481917542E0,-4.974609315E-1,3.490002453E-1,1.374604255E-1
2.491909542E0,-6.023468375E-1,3.216573000E-1,1.341543794E-1
2.501901542E0,-7.358224392E-1,2.035722136E-1,8.823745698E-2
2.511893542E0,-7.883519530E-1,1.611499190E-1,2.145123854E-2
2.521886542E0,-7.272621393E-1,1.751267761E-1,-1.527573615E-1
2.531878542E0,-4.172513187E-1,9.583114088E-2,-3.640623987E-1
2.541870542E0,4.404633492E-2,9.089164734E-1,-3.529116809E-1
2.551862542E0,-2.681067586E-1,8.547869325E-1,-5.015128106E-2
2.561854542E0,-4.823520184E-1,1.671131253E-1,9.229391068E-2
2.571846542E0,-1.495799273E-1,2.227050066E-1,5.557157844E-2
2.581838542E0,3.423806727E-1,1.014643431E0,1.763871312E-1
2.591830542E0,5.111667514E-1,1.053004622E0,4.100702107E-1
2.601822542E0,6.151834726E-1,7.994003892E-1,5.220345855E-1
2.611815542E0,7.034904361E-1,1.305423021E0,6.339960098E-1
2.621807542E0,4.790221155E-1,1.422347069E0,5.188333392E-1
2.631799542E0,1.179534048E-1,1.155630708E0,2.040490657E-1
2.641791542E0,-1.955008060E-1,8.330114484E-1,-7.474084944E-2
2.651783542E0,-3.222904503E-1,4.998984635E-1,-3.093053997E-1
2.661775542E0,-2.792128623E-1,3.727407455E-1,-3.815468252E-1
2.671767542E0,-1.655528843E-1,2.646478415E-1,-3.811079264E-1
2.681759542E0,-6.984115392E-2,2.020252943E-1,-3.890852332E-1
2.691752542E0,-8.713626117E-2,1.478344947E-1,-4.011054039E-1
2.701744542E0,-2.341955602E-1,5.684479699E-2,-3.615472019E-1
2.711736542E0,-4.393135905E-1,-5.018205196E-2,-2.829879522E-1
2.721728542E0,-6.165375113E-1,-1.521261930E-1,-2.001517713E-1
2.731720542E0,-6.978400946E-1,-2.747178972E-1,-1.007034704E-1
2.741712542E0,-6.137195826E-1,-4.602979124E-1,3.574658930E-2
2.751704542E0,-3.697489500E-1,-2.464783341E-1,2.682282925E-1
2.761696542E0,-2.160171270E-1,1.679791510E-1,4.775225818E-1
2.771688000E0,-7.644698769E-2,3.953638375E-1,5.923485160E-1
2.781681000E0,1.245814115E-1,5.724519491E-1,6.126860976E-1
2.791673000E0,3.497133255E-1,7.578724027E-1,5.174226761E-1
2.801665000E0,6.306967735E-1,8.868293762E-1,3.690145612E-1
2.811657000E0,9.563076496E-1,9.906920791E-1,2.347228080E-1
2.821649000E0,1.245805740E0,1.255956054E0,1.930525601E-1
2.831641000E0,1.533175945E0,1.908934355E0,2.242131382E-1
2.841633000E0,1.829990268E0,2.716374397E0,2.071601152E-1
2.851625000E0,2.124226093E0,3.732201815E0,2.855069190E-2
2.861618000E0,2.503739595E0,4.975158691E0,-3.299019635E-1
2.871610000E0,2.993612766E0,6.471647739E0,-6.858768463E-1
2.881602000E0,3.427036524E0,8.530842781E0,-9.240216017E-1
2.891594000E0,3.516573906E0,1.079470444E1,-1.020519495E0
2.901586000E0,6.719371796E0,-7.509536743E-1,-3.371287882E-1
2.911578000E0,6.153892040E0,-5.381655097E-1,-6.254713535E-1
2.921570000E0,5.190063000E0,5.980411768E-1,-7.189301252E-1
2.931562000E0,4.310219288E0,8.405864239E-1,-6.953572035E-1
2.941554000E0,2.815045118E0,-1.148671135E-1,-5.086397529E-1
2.951547000E0,4.436073303E-1,-6.255266666E-1,-4.809406996E-1
2.961539000E0,-1.715721846E0,-3.074933290E-1,-7.435439825E-1
2.971531000E0,-3.397874832E0,-4.053693116E-1,-8.426548243E-1
2.981523000E0,-4.290539265E0,-1.202376127E0,-7.327685952E-1
2.991515000E0,-4.722777367E0,-1.656987548E0,-6.027810574E-1
3.001507000E0,-4.798454285E0,-1.435213208E0,-5.953954458E-1
3.011499000E0,-3.665687084E0,2.553581297E-1,-4.866633713E-1
3.021491000E0,-2.879776955E0,9.313343763E-1,-4.997023642E-1
3.031483000E0,-1.802849412E0,1.158072710E0,-4.239002764E-1
3.041476000E0,-8.997750282E-1,1.187806368E0,-6.717436314E-1
3.051468000E0,-1.485830694E-1,9.898237586E-1,-7.681798935E-1
3.061460000E0,3.074822724E-1,1.032459497E0,-7.034950256E-1
3.071452000E0,3.952619135E-1,1.197916627E0,-7.277726531E-1
3.081444000E0,1.270383596E-1,1.174257874E0,-8.675622344E-1
3.091436000E0,-3.069554269E-1,7.590382099E-1,-1.024419427E0
3.101428000E0,-6.316441894E-1,3.859122396E-1,-1.120932460E0
3.111420000E0,-7.468267083E-1,3.901764750E-1,-1.123431325E0
3.121412000E0,-7.718328834E-1,4.348217547E-1,-1.017662644E0
3.131405000E0,-5.916129947E-1,3.335169554E-1,-8.826752305E-1
3.141397000E0,-1.355377287E-1,-1.006749421E-1,-6.604661345E-1
3.151389000E0,5.235469937E-1,-7.487749457E-1,-3.857370913E-1
3.161381000E0,1.115285993E0,-1.403319478E0,-1.639258713E-1
3.171373000E0,1.562162280E0,-1.689395428E0,-2.618851140E-2
3.181365000E0,1.706650615E0,-1.847529173E0,-3.105465323E-2
3.191357000E0,1.421716332E0,-1.605374575E0,-7.931458950E-2
3.201349000E0,8.106220961E-1,-1.033724546E0,-1.542956978E-1
3.211342000E0,1.614648849E-1,-5.783724189E-1,-1.787557751E-1
3.221334000E0,-3.629709482E-1,-2.776227593E-1,-2.093813717E-1
3.231326000E0,-7.259272933E-1,-1.224334165E-1,-2.689117789E-1
3.241318000E0,-8.552197814E-1,-1.697342247E-1,-1.712661088E-1
3.251310000E0,-7.690050006E-1,-4.659195542E-1,1.396486303E-3
3.261302000E0,-5.895897150E-1,-8.701956868E-1,1.362648755E-1
3.271294000E0,-3.522187173E-1,-9.060458541E-1,2.845094800E-1
3.281286000E0,-8.188650757E-2,-5.541502833E-1,6.043580174E-1
3.291278000E0,6.029620394E-2,-5.522274971E-1,1.177400231E0
