"Time (s)","Acceleration x (m/s^2)","Acceleration y (m/s^2)","Acceleration z (m/s^2)"
8.342793000E-3,-4.225766182E0,7.762300968E0,4.299986362E0
1.031979300E-2,-4.218583584E0,7.872434616E0,4.230554581E0
1.231979300E-2,-4.213795185E0,7.961019993E0,4.173093796E0
1.432012600E-2,-4.209006786E0,8.032846451E0,4.127603531E0
1.632037600E-2,-4.204218388E0,8.090307236E0,4.091690540E0
1.832057600E-2,-4.218583584E0,8.186075211E0,4.096478939E0
2.031874200E-2,-4.230554581E0,8.272266388E0,4.110844135E0
2.231888400E-2,-4.252102375E0,8.351274490E0,4.132391930E0
2.431900900E-2,-4.271255970E0,8.420706749E0,4.149151325E0
2.631912000E-2,-4.295197964E0,8.487744331E0,4.168305397E0
2.831922000E-2,-4.338293552E0,8.569147110E0,4.189853191E0
3.031685600E-2,-4.374206543E0,8.633790970E0,4.206612587E0
3.231460600E-2,-4.402936935E0,8.686463356E0,4.220977783E0
3.431460600E-2,-4.426878929E0,8.724770546E0,4.220977783E0
3.631460600E-2,-4.448426723E0,8.753500938E0,4.211400986E0
3.831460600E-2,-4.467580318E0,8.760683060E0,4.177882195E0
4.031460600E-2,-4.479551315E0,8.743924141E0,4.120420933E0
4.231460600E-2,-4.486733913E0,8.717587471E0,4.060565948E0
4.431460600E-2,-4.481945515E0,8.664915085E0,3.986345768E0
4.631460600E-2,-4.465186119E0,8.593089104E0,3.912125587E0
4.831460600E-2,-4.431667328E0,8.523657799E0,3.847482204E0
5.031460600E-2,-4.395754337E0,8.444648743E0,3.804386616E0
5.231460600E-2,-4.333505154E0,8.358457565E0,3.928884983E0
5.431460600E-2,-4.242525578E0,8.279448509E0,4.101267338E0
5.631460600E-2,-4.158728123E0,8.193257332E0,4.206612587E0
5.831460600E-2,-4.079719543E0,8.111854553E0,4.242525578E0
6.031464400E-2,-4.012681961E0,8.059182167E0,4.321534157E0
6.231468100E-2,-3.955221176E0,8.018480301E0,4.383783340E0
6.431471600E-2,-3.897760391E0,7.977779388E0,4.381389141E0
6.631475000E-2,-3.837905407E0,7.939472198E0,4.326322556E0
6.831478300E-2,-3.782838583E0,7.889194012E0,4.194641590E0
7.031471600E-2,-3.739742994E0,7.848492622E0,4.089296341E0
7.231384900E-2,-3.703830004E0,7.814973831E0,4.005499363E0
7.431384900E-2,-3.684676409E0,7.781454563E0,3.890577793E0
7.631381500E-2,-3.682282209E0,7.747935772E0,3.761290789E0
7.831378100E-2,-3.682282209E0,7.712022781E0,3.636792421E0
8.031414700E-2,-3.687070608E0,7.680898190E0,3.529053211E0
8.231411300E-2,-3.696647406E0,7.644985199E0,3.433285236E0
8.431407900E-2,-3.703830004E0,7.606678009E0,3.347094059E0
8.631404500E-2,-3.711012602E0,7.573159218E0,3.277662039E0
8.831401100E-2,-3.715801001E0,7.542034626E0,3.224989653E0
9.031487700E-2,-3.722983599E0,7.522881031E0,3.191470861E0
9.231577700E-2,-3.727771997E0,7.508515835E0,3.169923067E0
9.431577700E-2,-3.730166197E0,7.498939037E0,3.167528868E0
9.631577700E-2,-3.727771997E0,7.498939037E0,3.186682463E0
9.831577700E-2,-3.720589399E0,7.506121635E0,3.213018656E0
1.003157770E-1,-3.711012602E0,7.525275230E0,3.260902643E0
1.023157770E-1,-3.701435804E0,7.556399822E0,3.327940464E0
1.043157770E-1,-3.694253206E0,7.587524414E0,3.394978046E0
1.063157770E-1,-3.694253206E0,7.628225803E0,3.476380825E0
1.083158100E-1,-3.730166197E0,7.688080788E0,3.591302633E0
1.103149760E-1,-3.773261786E0,7.743147373E0,3.691859007E0
1.123141090E-1,-3.806780815E0,7.788637638E0,3.770867586E0
1.143141420E-1,-3.861847401E0,7.838915825E0,3.849876404E0
1.163141750E-1,-3.919308186E0,7.884405613E0,3.916913986E0
1.183142080E-1,-3.995922565E0,7.927501202E0,3.976768970E0
1.203142080E-1,-4.101267338E0,7.963414192E0,4.019864559E0
1.223141740E-1,-4.211400986E0,7.987356186E0,4.046200752E0
1.243141400E-1,-4.343081951E0,7.987356186E0,4.048594952E0
1.263141060E-1,-4.496310711E0,7.963414192E0,4.007893562E0
1.283140720E-1,-4.637568474E0,7.929895401E0,3.948038578E0
1.303149050E-1,-4.783615112E0,7.870040417E0,3.835511208E0
1.323157710E-1,-4.922778130E0,7.793426037E0,3.684676409E0
1.343157370E-1,-5.044882298E0,7.719205379E0,3.543418407E0
1.363157370E-1,-5.155015469E0,7.635408401E0,3.406949043E0
1.383157700E-1,-5.250783443E0,7.556399822E0,3.287238836E0
1.403158030E-1,-5.329792023E0,7.491756439E0,3.191470861E0
1.423158360E-1,-5.389647484E0,7.431901455E0,3.126827478E0
1.443158690E-1,-5.430348873E0,7.379229069E0,3.083731890E0
1.463159020E-1,-5.454290867E0,7.338527679E0,3.055001259E0
1.483159350E-1,-5.413589478E0,7.321768284E0,3.033453465E0
1.503151010E-1,-5.380070686E0,7.309797287E0,3.016694069E0
1.523142340E-1,-5.353734493E0,7.300220490E0,3.004723072E0
1.543142340E-1,-5.298667431E0,7.302614689E0,2.980781078E0
1.563142340E-1,-5.222053051E0,7.316979885E0,2.952050686E0
1.583142340E-1,-5.145438671E0,7.333739281E0,2.918531895E0
1.603142340E-1,-5.030517101E0,7.427113056E0,2.820369720E0
1.623142340E-1,-4.881777287E0,7.594707012E0,2.621650934E0
1.643142340E-1,-4.740519524E0,7.743147373E0,2.403778553E0
1.663142340E-1,-4.623203278E0,7.872434616E0,2.140416384E0
1.683142000E-1,-4.522646904E0,7.977779388E0,1.879448295E0
1.703150330E-1,-4.446032524E0,8.063970566E0,1.659181833E0
1.723158990E-1,-4.386177540E0,8.140584946E0,1.491587639E0
1.743158650E-1,-4.345476151E0,8.217199326E0,1.398213744E0
1.763158310E-1,-4.328716755E0,8.289025307E0,1.388636947E0
1.783157970E-1,-4.321534157E0,8.360851288E0,1.414973259E0
1.803157630E-1,-4.328716755E0,8.439860344E0,1.513135433E0
1.823157630E-1,-4.340687752E0,8.521263123E0,1.666364431E0
1.843157630E-1,-4.355052948E0,8.597877502E0,1.826775908E0
1.863157960E-1,-4.364629745E0,8.672098160E0,2.027888775E0
1.883158290E-1,-4.338293552E0,8.736741066E0,2.303221941E0
1.903149950E-1,-4.304774761E0,8.784625053E0,2.545036316E0
1.923141280E-1,-4.276044369E0,8.822932243E0,2.736572504E0
1.943141610E-1,-4.228160381E0,8.844480515E0,2.916137695E0
1.963141940E-1,-4.175487995E0,8.851662636E0,3.071760893E0
1.983141940E-1,-4.110844135E0,8.834903717E0,3.215412855E0
2.003141940E-1,-4.039018154E0,8.796596527E0,3.342305660E0
2.023141600E-1,-3.969586372E0,8.755894661E0,3.445256233E0
2.043141260E-1,-3.890577793E0,8.700828552E0,3.529053211E0
2.063140920E-1,-3.806780815E0,8.633790970E0,3.610456228E0
2.083140580E-1,-3.730166197E0,8.571541786E0,3.684676409E0
2.103148910E-1,-3.651157618E0,8.511686325E0,3.768473387E0
2.123154240E-1,-3.567360640E0,8.456619263E0,3.869029999E0
2.143154240E-1,-3.490746021E0,8.413523674E0,3.962403774E0
2.163154570E-1,-3.414131641E0,8.382399559E0,4.065354347E0
2.183154900E-1,-3.342305660E0,8.360851288E0,4.175487995E0
2.203155230E-1,-3.282450438E0,8.346486092E0,4.278438568E0
2.223155560E-1,-3.232172251E0,8.346486092E0,4.383783340E0
2.243155890E-1,-3.198653460E0,8.356062889E0,4.481945515E0
2.263156220E-1,-3.177105665E0,8.368034363E0,4.563348293E0
2.283156550E-1,-3.205836058E0,8.391976357E0,4.644751072E0
2.303148210E-1,-3.227383852E0,8.411129951E0,4.709394932E0
2.323141210E-1,-3.244143248E0,8.425495148E0,4.762067318E0
2.343141210E-1,-3.282450438E0,8.439860344E0,4.829104900E0
2.363141210E-1,-3.330334663E0,8.449437141E0,4.910807133E0
2.383141210E-1,-3.371036053E0,8.454225540E0,4.987421513E0
2.403141210E-1,-3.402160645E0,8.454225540E0,5.054459095E0
2.423141210E-1,-3.423708439E0,8.439860344E0,5.109525681E0
2.443141210E-1,-3.438073635E0,8.418312073E0,5.155015469E0
2.463145870E-1,-3.454833031E0,8.377611160E0,5.202899456E0
2.483145530E-1,-3.471592426E0,8.320150375E0,5.257966042E0
2.503153860E-1,-3.488351822E0,8.265083313E0,5.313032627E0
2.523162520E-1,-3.512293816E0,8.200440407E0,5.372888088E0
2.543162180E-1,-3.543418407E0,8.131008148E0,5.425560474E0
2.563161840E-1,-3.572149038E0,8.066365242E0,5.468656063E0
2.583161500E-1,-3.605667830E0,7.996932983E0,5.497386456E0
2.603161160E-1,-3.641580820E0,7.927501202E0,5.504569054E0
2.623161160E-1,-3.675099611E0,7.865252018E0,5.502174854E0
2.643161490E-1,-3.708618402E0,7.803002834E0,5.487809658E0
2.663161820E-1,-3.739742994E0,7.750329971E0,5.463867664E0
2.683162150E-1,-3.778050184E0,7.704840183E0,5.437531471E0
2.703153810E-1,-3.809175014E0,7.671321392E0,5.418377876E0
2.723148470E-1,-3.833117008E0,7.644985199E0,5.404012680E0
2.743148800E-1,-3.857059002E0,7.625831604E0,5.396830082E0
2.763148800E-1,-3.881000996E0,7.611466408E0,5.399224281E0
2.783148800E-1,-3.900154591E0,7.601889610E0,5.413589478E0
2.803148460E-1,-3.914519787E0,7.597101212E0,5.432743073E0
2.823148120E-1,-3.924096584E0,7.594707012E0,5.449502468E0
2.843147780E-1,-3.928884983E0,7.597101212E0,5.463867664E0
2.863147440E-1,-3.916913986E0,7.601889610E0,5.475838661E0
2.883147100E-1,-3.902548790E0,7.606678009E0,5.485415459E0
2.903155430E-1,-3.871424198E0,7.611466408E0,5.487809658E0
2.923162430E-1,-3.828328609E0,7.613860607E0,5.487809658E0
2.943162760E-1,-3.785232782E0,7.604283810E0,5.485415459E0
2.963163090E-1,-3.732560396E0,7.589918613E0,5.475838661E0
2.983159420E-1,-3.670311213E0,7.573159218E0,5.456685066E0
3.003159750E-1,-3.612850428E0,7.546823025E0,5.435137272E0
3.023160080E-1,-3.555389643E0,7.510910034E0,5.408801079E0
3.043151740E-1,-3.497928619E0,7.474997044E0,5.384859085E0
3.063147070E-1,-3.433285236E0,7.429507256E0,5.365705490E0
3.083147400E-1,-3.330334663E0,7.362469673E0,5.356128693E0
3.103138730E-1,-3.248931646E0,7.307403088E0,5.346551895E0
3.123129730E-1,-3.184288263E0,7.264307022E0,5.339369297E0
3.143129730E-1,-3.114856482E0,7.218817234E0,5.336975098E0
3.163129730E-1,-3.043030262E0,7.170933247E0,5.341763496E0
3.183129730E-1,-2.978386879E0,7.125443459E0,5.346551895E0
3.203129730E-1,-2.913743496E0,7.077559471E0,5.360917091E0
3.223129730E-1,-2.849100113E0,7.032069683E0,5.382464886E0
3.243129390E-1,-2.791639090E0,6.988974094E0,5.404012680E0
3.263129050E-1,-2.736572504E0,6.945878506E0,5.435137272E0
3.283128710E-1,-2.683900118E0,6.902782917E0,5.473444462E0
3.303137040E-1,-2.636016130E0,6.862081528E0,5.511751652E0
3.323139370E-1,-2.595314741E0,6.811803341E0,5.559635639E0
3.343139030E-1,-2.564189911E0,6.749553680E0,5.614702225E0
3.363138690E-1,-2.542642117E0,6.687304497E0,5.667374611E0
3.383138350E-1,-2.537853718E0,6.613084316E0,5.722441196E0
3.403138350E-1,-2.552218914E0,6.524498940E0,5.782296181E0
3.423138680E-1,-2.576161146E0,6.438307762E0,5.839757442E0
3.443139010E-1,-2.621650934E0,6.344933987E0,5.897218227E0
3.463139340E-1,-2.688688517E0,6.244377136E0,5.957073212E0
3.483139670E-1,-2.827552319E0,6.115090370E0,6.014533997E0
3.503131330E-1,-2.940079689E0,6.012139797E0,6.060023785E0
3.523122990E-1,-3.052607059E0,5.921160221E0,6.095936775E0
3.543122990E-1,-3.165134668E0,5.842151642E0,6.124667168E0
3.563122990E-1,-3.296815634E0,5.772719383E0,6.151003361E0
3.583126650E-1,-3.445256233E0,5.717652798E0,6.179733753E0
3.603126310E-1,-3.581725836E0,5.676951408E0,6.210858345E0
3.623125970E-1,-3.722983599E0,5.653009415E0,6.258742332E0
3.643134300E-1,-3.864241600E0,5.648221016E0,6.316203594E0
3.663133960E-1,-3.988739967E0,5.650615215E0,6.373664379E0
3.683133620E-1,-4.106055737E0,5.664980412E0,6.438307762E0
3.703142280E-1,-4.211400986E0,5.693710804E0,6.507739544E0
3.723151610E-1,-4.302380562E0,5.722441196E0,6.569988728E0
3.743151940E-1,-4.378994942E0,5.758354187E0,6.634632111E0
3.763152270E-1,-4.434061527E0,5.801449776E0,6.694487095E0
3.783152600E-1,-4.474762917E0,5.839757442E0,6.744765282E0
3.803152930E-1,-4.491522312E0,5.882853031E0,6.792649269E0
3.823153260E-1,-4.481945515E0,5.933131218E0,6.840533733E0
3.843153590E-1,-4.462791920E0,5.976226807E0,6.883629322E0
3.863153920E-1,-4.419696331E0,6.016928196E0,6.931513309E0
3.883153920E-1,-4.304774761E0,6.048052788E0,7.012916088E0
3.903145250E-1,-4.211400986E0,6.071994781E0,7.077559471E0
3.923142580E-1,-4.137180328E0,6.091148376E0,7.130231857E0
3.943142580E-1,-4.050989151E0,6.091148376E0,7.192481041E0
3.963142580E-1,-3.974374771E0,6.083965778E0,7.249941826E0
3.983142580E-1,-3.902548790E0,6.062417984E0,7.297826290E0
4.003142580E-1,-3.842693806E0,6.024110794E0,7.328950882E0
4.023142240E-1,-3.809175014E0,5.981015205E0,7.345710278E0
4.043141900E-1,-3.790021181E0,5.923554420E0,7.340921879E0
4.063141560E-1,-3.797203779E0,5.854122639E0,7.328950882E0
4.083141220E-1,-3.823540211E0,5.789478779E0,7.321768284E0
4.103149550E-1,-3.852270603E0,5.724835396E0,7.319374084E0
4.123157880E-1,-3.888183594E0,5.667374611E0,7.333739281E0
4.143157540E-1,-3.928884983E0,5.617096424E0,7.369652271E0
4.163157200E-1,-3.964797974E0,5.574000835E0,7.412747860E0
4.183157200E-1,-3.998316765E0,5.535693645E0,7.479785442E0
4.203157530E-1,-4.024652958E0,5.502174854E0,7.565976620E0
4.223157860E-1,-4.046200752E0,5.475838661E0,7.647379398E0
4.243158190E-1,-4.060565948E0,5.454290867E0,7.731176376E0
4.263158520E-1,-4.070142746E0,5.439925671E0,7.812579632E0
4.283158850E-1,-4.077325344E0,5.427954674E0,7.884405613E0
4.303150510E-1,-4.082113743E0,5.418377876E0,7.941866398E0
4.323141510E-1,-4.082113743E0,5.411195278E0,7.987356186E0
4.343141510E-1,-4.079719543E0,5.401618481E0,8.020874977E0
4.363141170E-1,-4.070142746E0,5.394435883E0,8.044816971E0
4.383140830E-1,-4.048594952E0,5.399224281E0,8.063970566E0
4.403140490E-1,-4.027047157E0,5.406406879E0,8.080730438E0
4.423140150E-1,-4.005499363E0,5.418377876E0,8.095095634E0
4.443139810E-1,-3.974374771E0,5.442319870E0,8.090307236E0
4.463139470E-1,-3.943250179E0,5.468656063E0,8.073547363E0
4.483139470E-1,-3.912125587E0,5.504569054E0,8.037634850E0
4.503144130E-1,-3.881000996E0,5.552453041E0,7.984961987E0
4.523153460E-1,-3.854664803E0,5.602731228E0,7.927501202E0
4.543153790E-1,-3.830722809E0,5.657797813E0,7.862857819E0
4.563154120E-1,-3.811569214E0,5.717652798E0,7.788637638E0
4.583154450E-1,-3.794809580E0,5.772719383E0,7.716811180E0
4.603154780E-1,-3.778050184E0,5.834969044E0,7.635408401E0
4.623155110E-1,-3.761290789E0,5.904400826E0,7.551611423E0
4.643155440E-1,-3.742137194E0,5.969044209E0,7.474997044E0
4.663155440E-1,-3.708618402E0,6.040870190E0,7.400776863E0
4.683155440E-1,-3.632004023E0,6.134243965E0,7.314585686E0
4.703146770E-1,-3.552995205E0,6.218040943E0,7.237970829E0
4.723137770E-1,-3.490746021E0,6.285078526E0,7.175721645E0
4.743137770E-1,-3.406949043E0,6.354510784E0,7.111078262E0
4.763137770E-1,-3.320757866E0,6.414365768E0,7.053617477E0
4.783137770E-1,-3.215412855E0,6.471826553E0,6.996156693E0
4.803137430E-1,-3.093308687E0,6.522104740E0,6.929119110E0
4.823137090E-1,-2.978386879E0,6.565200329E0,6.862081528E0
4.843136750E-1,-2.856282711E0,6.598719120E0,6.778284073E0
4.863136410E-1,-2.734178305E0,6.620266914E0,6.677727699E0
4.883136070E-1,-2.626439333E0,6.639420509E0,6.579565525E0
4.903144400E-1,-2.516305923E0,6.656179905E0,6.459855556E0
4.923153060E-1,-2.408566952E0,6.663362503E0,6.328174591E0
4.943152720E-1,-2.315192938E0,6.668150902E0,6.206069946E0
4.963152720E-1,-2.217030764E0,6.670545101E0,6.086359978E0
4.983153050E-1,-2.121262789E0,6.670545101E0,5.971438408E0
5.003153380E-1,-2.035071373E0,6.670545101E0,5.868487835E0
5.023153710E-1,-1.951274395E0,6.670545101E0,5.770325184E0
5.043154040E-1,-1.867477298E0,6.665756702E0,5.672163010E0
5.063154370E-1,-1.788468719E0,6.660968304E0,5.585971832E0
5.083154700E-1,-1.668758631E0,6.646603107E0,5.471050262E0
5.103150360E-1,-1.572990537E0,6.634632111E0,5.377676487E0
5.123141360E-1,-1.496376038E0,6.625055313E0,5.303455830E0
5.143141020E-1,-1.412579060E0,6.615478516E0,5.224447250E0
5.163140680E-1,-1.323993564E0,6.603507519E0,5.143044472E0
5.183140340E-1,-1.240196466E0,6.593930721E0,5.066430092E0
5.203140000E-1,-1.146822572E0,6.586748123E0,4.985027313E0
5.223139660E-1,-1.043871999E0,6.577171326E0,4.906018734E0
5.243139320E-1,-9.361328483E-1,6.567594528E0,4.833893299E0
5.263139320E-1,-8.403648138E-1,6.558017731E0,4.754884720E0
5.283139320E-1,-7.493851185E-1,6.543652534E0,4.666299343E0
5.303148320E-1,-6.679822803E-1,6.529287338E0,4.577713490E0
5.323157650E-1,-6.009446383E-1,6.514922142E0,4.493916512E0
5.343157980E-1,-5.434837937E-1,6.502951145E0,4.402936935E0
5.363158310E-1,-4.932055473E-1,6.493374348E0,4.309563160E0
5.383158640E-1,-4.501099288E-1,6.490980148E0,4.223371983E0
5.403158970E-1,-4.165911078E-1,6.500556946E0,4.127603531E0
5.423159300E-1,-3.902548850E-1,6.517316341E0,4.019864559E0
5.443159300E-1,-3.687070608E-1,6.536469936E0,3.916913986E0
5.463159300E-1,-3.471592367E-1,6.569988728E0,3.799597979E0
5.483159300E-1,-2.992752194E-1,6.622661114E0,3.636792421E0
5.503150630E-1,-2.537853718E-1,6.672939301E0,3.490746021E0
5.523141630E-1,-2.154781520E-1,6.713640690E0,3.375824451E0
5.543141630E-1,-1.651999205E-1,6.759130478E0,3.251325846E0
5.563141630E-1,-1.101332754E-1,6.802226067E0,3.136404276E0
5.583141290E-1,-4.309562966E-2,6.847716331E0,3.019088268E0
5.603140950E-1,3.591302410E-2,6.897994518E0,2.901772499E0
5.623140610E-1,1.125274822E-1,6.945878506E0,2.801215887E0
5.643140270E-1,2.011129409E-1,7.000945091E0,2.698265314E0
5.663139930E-1,3.016694188E-1,7.063194275E0,2.595314741E0
5.683139590E-1,3.998316824E-1,7.127837658E0,2.499546528E0
5.703147920E-1,5.147533417E-1,7.197269440E0,2.398990154E0
5.723156580E-1,6.488286853E-1,7.271489620E0,2.300827742E0
5.743156580E-1,7.781155705E-1,7.338527679E0,2.212242365E0
5.763156910E-1,9.265560508E-1,7.407959461E0,2.123656988E0
5.783157240E-1,1.089361787E0,7.474997044E0,2.027888775E0
5.803157570E-1,1.240196466E0,7.534852028E0,1.936909199E0
5.823157900E-1,1.405396342E0,7.592312813E0,1.829170108E0
5.843158230E-1,1.577778935E0,7.642591000E0,1.707065821E0
5.863158560E-1,1.731007814E0,7.678503990E0,1.594538331E0
5.883158890E-1,1.843535304E0,7.601889610E0,1.412579060E0
5.903150220E-1,1.934514999E0,7.542034626E0,1.266532660E0
5.923141880E-1,2.006340981E0,7.494150639E0,1.149216771E0
5.943141540E-1,2.106897593E0,7.455843449E0,1.029506683E0
5.963141200E-1,2.286462545E0,7.467814445E0,9.481038451E-1
5.983140860E-1,2.473210335E0,7.496544838E0,8.762778044E-1
6.003140520E-1,2.679111719E0,7.546823025E0,7.852981687E-1
6.023138180E-1,2.875436306E0,7.611466408E0,6.751648784E-1
6.043138180E-1,3.045424461E0,7.673715591E0,5.722141862E-1
6.063138180E-1,3.203441858E0,7.745541573E0,4.620809257E-1
6.083138510E-1,3.351882458E0,7.819762230E0,3.543418646E-1
6.103147510E-1,3.478775024E0,7.882011414E0,2.609679997E-1
6.123148170E-1,3.598485231E0,7.934683800E0,1.819593310E-1
6.143148500E-1,3.718195200E0,7.975385189E0,1.221042871E-1
6.163148830E-1,3.825934410E0,8.001721382E0,7.182604820E-2
6.183149160E-1,3.931279182E0,8.008903503E0,1.915361360E-2
6.203149490E-1,4.029441357E0,7.996932983E0,-3.351882473E-2
6.223149490E-1,4.115632534E0,7.977779388E0,-8.619125932E-2
6.243149490E-1,4.199429989E0,7.946654797E0,-1.484405100E-1
6.263149490E-1,4.280832767E0,7.903559208E0,-2.154781520E-1
6.283149490E-1,4.386177540E0,7.822156429E0,-2.873041928E-1
6.303140820E-1,4.481945515E0,7.745541573E0,-3.495534360E-1
6.323131820E-1,4.558559895E0,7.685686588E0,-3.998316824E-1
6.343131820E-1,4.630385876E0,7.628225803E0,-4.429273009E-1
6.363131480E-1,4.709394932E0,7.565976620E0,-4.788403511E-1
6.383131140E-1,4.797980309E0,7.496544838E0,-5.099649429E-1
6.403130800E-1,4.893748283E0,7.431901455E0,-5.386953950E-1
6.423130460E-1,4.985027313E0,7.367258072E0,-5.602431893E-1
6.443130120E-1,5.083189487E0,7.297826290E0,-5.746083856E-1
6.463129780E-1,5.186140060E0,7.235576630E0,-5.865794420E-1
6.483129440E-1,5.281908035E0,7.168539047E0,-5.985504389E-1
6.503137770E-1,5.380070686E0,7.101501465E0,-6.057330370E-1
6.523145770E-1,5.483021259E0,7.041646481E0,-6.153098345E-1
6.543144770E-1,5.576395035E0,6.981791496E0,-6.224924326E-1
6.563145100E-1,5.674557209E0,6.924330711E0,-6.248866320E-1
6.583145430E-1,5.770325184E0,6.862081528E0,-6.248866320E-1
6.603145760E-1,5.856516838E0,6.807014942E0,-6.248866320E-1
6.623148090E-1,5.935525417E0,6.751947880E0,-6.248866320E-1
6.643148420E-1,6.004957199E0,6.696881294E0,-6.177040339E-1
6.663148750E-1,6.062417984E0,6.646603107E0,-6.129156351E-1
6.683148750E-1,6.131849766E0,6.589142323E0,-5.985504389E-1
6.703139750E-1,6.186916351E0,6.541258335E0,-5.889736414E-1
6.723139080E-1,6.230011940E0,6.502951145E0,-5.793967843E-1
6.743138740E-1,6.273107529E0,6.464643955E0,-5.674257874E-1
6.763138400E-1,6.313809395E0,6.426336765E0,-5.530605912E-1
6.783138060E-1,6.352116585E0,6.392817974E0,-5.386953950E-1
6.803137720E-1,6.397606373E0,6.364087582E0,-5.243301988E-1
6.823137720E-1,6.447884560E0,6.335357189E0,-5.147533417E-1
6.843137720E-1,6.495768547E0,6.311414719E0,-5.051765442E-1
6.863138050E-1,6.553229332E0,6.292261124E0,-5.003881454E-1
6.883138380E-1,6.625055313E0,6.277895927E0,-5.027823448E-1
6.903147380E-1,6.696881294E0,6.265924931E0,-5.075707436E-1
