"Time (s)","Acceleration x (m/s^2)","Acceleration y (m/s^2)","Acceleration z (m/s^2)"
2.828663600E-2,-2.760566711E0,6.732925415E0,6.604362965E0
3.075278200E-2,-2.722260952E0,6.754471779E0,6.654638767E0
3.321882400E-2,-2.693531990E0,6.720954895E0,6.712096691E0
3.568486500E-2,-2.671984911E0,6.730530739E0,6.803072929E0
3.815090700E-2,-2.638467789E0,6.723348618E0,6.882077694E0
4.061700100E-2,-2.683955431E0,6.682648659E0,7.020936012E0
4.308309400E-2,-2.731837511E0,6.632372856E0,7.210069180E0
4.554918800E-2,-2.727049112E0,6.613220215E0,7.358503819E0
4.801528200E-2,-2.686349630E0,6.613220215E0,7.487784863E0
5.045726100E-2,-2.664802790E0,6.596461296E0,7.605095863E0
5.286299000E-2,-2.664802790E0,6.596461296E0,7.605095863E0
5.529283400E-2,-2.518762589E0,6.543791294E0,7.791835308E0
5.775898000E-2,-2.372722626E0,6.546185493E0,7.873234749E0
6.022512600E-2,-2.248229504E0,6.459997654E0,7.904358387E0
6.269934400E-2,-2.135706902E0,6.359446049E0,8.024064064E0
6.518111500E-2,-2.018395901E0,6.225376129E0,8.036034584E0
6.766455300E-2,-1.898691177E0,6.208617210E0,8.067157745E0
7.014981300E-2,-1.750256896E0,6.222981930E0,8.059975624E0
7.263444900E-2,-1.613793373E0,6.280440331E0,8.028851509E0
7.511861500E-2,-1.491694331E0,6.357051849E0,7.997727871E0
7.760231300E-2,-1.302560449E0,6.383386612E0,8.000123024E0
8.008559400E-2,-1.161308646E0,6.364233971E0,8.009698868E0
8.256851100E-2,-1.065544724E0,6.325928211E0,7.985757351E0
8.505106300E-2,-9.865395427E-1,6.294805050E0,7.923511028E0
8.753325100E-2,-9.721748233E-1,6.220587730E0,7.892387867E0
9.001517800E-2,-9.242929816E-1,6.155947208E0,7.858870506E0
9.249679200E-2,-8.883815408E-1,6.110459328E0,7.803805828E0
9.497814700E-2,-8.476818204E-1,6.093700886E0,7.720012665E0
9.745924000E-2,-8.572582006E-1,6.053000927E0,7.679312706E0
9.994007400E-2,-9.123224616E-1,6.045818806E0,7.631430626E0
1.024205940E-1,-9.027460217E-1,6.079336166E0,7.597913265E0
1.049009070E-1,-8.716228008E-1,6.072154045E0,7.509331703E0
1.073810630E-1,-8.955637813E-1,6.036242485E0,7.432720661E0
1.098610110E-1,-9.673867822E-1,6.134400368E0,7.380050182E0
1.123406990E-1,-1.067938805E0,6.124824047E0,7.399203300E0
1.148201780E-1,-1.149338245E0,6.143976688E0,7.384839058E0
1.172995010E-1,-1.261860847E0,6.203829288E0,7.370474339E0
1.197786150E-1,-1.352836609E0,6.172705650E0,7.327380180E0
1.222575740E-1,-1.472541571E0,6.263681889E0,7.253163338E0
1.247363760E-1,-1.575487852E0,6.402539253E0,7.169369698E0
1.272150220E-1,-1.685616374E0,6.436056614E0,7.155005455E0
1.296935110E-1,-1.695192695E0,6.529427052E0,7.099940777E0
1.321682510E-1,-1.723921776E0,6.582097054E0,7.083182335E0
1.346172090E-1,-1.781380177E0,6.627584934E0,7.018541813E0
1.370443970E-1,-1.735892296E0,6.637161255E0,6.944324970E0
1.394716360E-1,-1.716739535E0,6.641949177E0,6.934748173E0
1.418980940E-1,-1.668857574E0,6.704195976E0,6.867713451E0
1.443245530E-1,-1.632946014E0,6.754471779E0,6.822225571E0
1.467517920E-1,-1.525211692E0,6.847841740E0,6.805466652E0
1.491790320E-1,-1.400718570E0,6.898118019E0,6.745614529E0
1.516054380E-1,-1.309742808E0,6.941211700E0,6.683367729E0
1.540318970E-1,-1.166096807E0,6.948393822E0,6.621121407E0
1.564591360E-1,-1.067938805E0,6.926847458E0,6.625909328E0
1.588863760E-1,-9.434457421E-1,6.888541222E0,6.611545086E0
1.613128340E-1,-8.404995203E-1,6.852629662E0,6.592392445E0
1.637392920E-1,-7.686765790E-1,6.814324379E0,6.551692486E0
1.661665320E-1,-7.040358782E-1,6.795171738E0,6.537327766E0
1.685937720E-1,-6.729125381E-1,6.740107536E0,6.542115688E0
1.710201780E-1,-6.322129369E-1,6.701801777E0,6.594786167E0
1.734466360E-1,-6.561538577E-1,6.627584934E0,6.635485649E0
1.758738760E-1,-6.753066778E-1,6.548579216E0,6.719279289E0
1.783011150E-1,-7.207945585E-1,6.495909214E0,6.807860851E0
1.807275740E-1,-7.351591587E-1,6.436056614E0,6.850955009E0
1.831540320E-1,-9.506279826E-1,5.796832561E0,7.336956978E0
1.855812720E-1,-1.324107409E0,4.920592308E0,7.959422588E0
1.880085110E-1,-9.506279826E-1,5.555028439E0,7.420750141E0
1.904349170E-1,-4.430791140E-1,6.151159286E0,7.056847572E0
1.928613760E-1,-1.438167691E-1,6.244528770E0,7.030512333E0
1.952886150E-1,7.165212929E-2,6.292410851E0,6.975447655E0
1.977158550E-1,2.488154471E-1,6.342686653E0,6.987418175E0
2.001423130E-1,3.733085692E-1,6.345081329E0,7.047270775E0
2.025687720E-1,4.834370911E-1,6.455209732E0,6.951507092E0
2.049960110E-1,5.337132215E-1,6.505486012E0,6.767161369E0
2.074232510E-1,5.049840212E-1,6.359446049E0,6.700126171E0
2.098496570E-1,4.475256205E-1,6.191858768E0,6.779131889E0
2.122761150E-1,3.565498888E-1,6.009907246E0,6.925171852E0
2.147033550E-1,3.062737882E-1,5.887808323E0,7.037694454E0
2.171305940E-1,2.224803567E-1,5.880625725E0,7.123881817E0
2.195570530E-1,1.458691955E-1,5.871049404E0,7.131064415E0
2.219835110E-1,5.489343777E-2,5.909355164E0,7.083182335E0
2.244106990E-1,-8.396429569E-2,5.942872524E0,7.114305973E0
2.268379380E-1,-1.605754793E-1,5.962025166E0,7.095152855E0
2.292643970E-1,-1.916987598E-1,5.950054646E0,7.016147137E0
2.316908550E-1,-1.581813395E-1,5.899778843E0,7.013753414E0
2.341180940E-1,-1.486049592E-1,5.801620960E0,7.080788136E0
2.365453340E-1,-1.701518595E-1,5.653186321E0,7.145428658E0
2.389717920E-1,-1.055111811E-1,5.576575279E0,7.138247013E0
2.413982510E-1,3.813474625E-2,5.535875797E0,7.075999737E0
2.438254900E-1,1.985393614E-1,5.452082157E0,6.999388695E0
2.462527300E-1,3.230324984E-1,5.308436394E0,6.917989254E0
2.486791360E-1,4.044318497E-1,5.150425911E0,6.910807133E0
2.511055940E-1,5.385013819E-1,4.968474388E0,6.941930294E0
2.535328340E-1,6.701768041E-1,4.829617023E0,7.004177094E0
2.559600740E-1,8.329755068E-1,4.743428707E0,7.064029217E0
2.583864800E-1,9.215571880E-1,4.669211864E0,7.195704937E0
2.608129380E-1,1.105902791E0,4.616541862E0,7.324986458E0
2.632402300E-1,1.297430634E0,4.597388744E0,7.415961742E0
2.656674690E-1,1.371647835E0,4.669211864E0,7.521302223E0
2.680938760E-1,1.546416998E0,4.738640785E0,7.581154823E0
2.705203340E-1,1.836102962E0,4.745823383E0,7.605095863E0
2.729475740E-1,2.063542128E0,4.879892826E0,7.729588985E0
2.753748130E-1,2.223947048E0,5.037903309E0,7.878023148E0
2.778012190E-1,2.322105169E0,5.169579029E0,8.043216705E0
2.802276780E-1,2.401110411E0,5.368288994E0,8.239532471E0
2.826549690E-1,2.341257811E0,5.581363678E0,8.447819710E0
2.850822090E-1,2.209582329E0,5.772891521E0,8.632164001E0
2.875086150E-1,1.962990165E0,6.050606728E0,8.814116478E0
2.899350740E-1,1.754703522E0,6.306775093E0,9.005644798E0
2.923623130E-1,1.510505557E0,6.555761814E0,9.197172165E0
2.947895530E-1,1.275883794E0,6.749683857E0,9.326453209E0
2.972159590E-1,1.062808990E0,6.883753300E0,9.465311050E0
2.996424170E-1,9.742273688E-1,6.840659142E0,9.494040489E0
3.020697090E-1,8.473401070E-1,6.826294899E0,9.510799408E0
3.044969490E-1,7.348175049E-1,6.776018620E0,9.563468933E0
3.069233550E-1,5.313190818E-1,6.665890217E0,9.587409973E0
3.093498130E-1,3.469734788E-1,6.594067097E0,9.616139412E0
3.117770530E-1,1.889629662E-1,6.519850254E0,9.568257332E0
3.142042920E-1,2.223260701E-3,6.385780811E0,9.565863609E0
3.166306990E-1,-2.084574401E-1,6.311563969E0,9.506010056E0
3.190571570E-1,-3.999853730E-1,6.201435566E0,9.448552132E0
3.214844490E-1,-5.149020553E-1,6.117641926E0,9.338424683E0
3.239116880E-1,-6.896712780E-1,5.973995686E0,9.254630089E0
3.263380940E-1,-8.404995203E-1,5.863867283E0,9.125349045E0
3.287645530E-1,-9.458398223E-1,5.777679920E0,8.996067047E0
3.311917920E-1,-1.079909325E0,5.693886280E0,8.876362801E0
3.336190320E-1,-1.213978767E0,5.590939999E0,8.799751282E0
3.360454380E-1,-1.312136889E0,5.492781639E0,8.747081757E0
3.384718970E-1,-1.383959770E0,5.468840599E0,8.715958595E0
3.408991880E-1,-1.434235930E0,5.468840599E0,8.692017555E0
3.433264280E-1,-1.470147491E0,5.437717915E0,8.696805000E0
3.457528340E-1,-1.491694331E0,5.461658955E0,8.682440758E0
3.481792920E-1,-1.506058931E0,5.466446877E0,8.668076515E0
3.506065320E-1,-1.510847092E0,5.485599995E0,8.682440758E0
3.530337720E-1,-1.484511971E0,5.502358437E0,8.706381798E0
3.554601780E-1,-1.441418171E0,5.495175838E0,8.689622879E0
3.578866360E-1,-1.431841850E0,5.466446877E0,8.660894394E0
3.603139280E-1,-1.350442410E0,5.473629475E0,8.641741753E0
3.627411670E-1,-1.228343487E0,5.478417397E0,8.596253395E0
3.651675740E-1,-1.132579446E0,5.497570515E0,8.545977592E0
3.675940320E-1,-1.106244445E0,5.535875797E0,8.462182999E0
3.700212720E-1,-1.134973526E0,5.638821602E0,8.361631393E0
3.724485110E-1,-1.106244445E0,5.701068401E0,8.349660873E0
3.748749170E-1,-1.008086324E0,5.655580997E0,8.416696548E0
3.773013760E-1,-9.075343013E-1,5.643610477E0,8.340085030E0
3.797286670E-1,-8.069821596E-1,5.650792122E0,8.220379829E0
3.821559070E-1,-6.585479975E-1,5.686703682E0,8.234744072E0
3.845823130E-1,-5.675722361E-1,5.674733162E0,8.206015587E0
3.870087720E-1,-4.526554942E-1,5.648398399E0,8.162920952E0
3.894360110E-1,-3.161918819E-1,5.646004200E0,8.093492508E0
3.918632510E-1,-2.132456303E-1,5.646004200E0,7.990545750E0
3.942897090E-1,-1.342403889E-1,5.698674202E0,7.897175789E0
3.967161670E-1,-2.890003473E-2,5.729797840E0,7.799017906E0
3.991434070E-1,2.223260701E-3,5.796832561E0,7.693677425E0
4.015706470E-1,1.419375092E-2,5.842320442E0,7.602701664E0
4.039970530E-1,9.080491960E-2,5.859078884E0,7.497361183E0
4.064235110E-1,1.458691955E-1,5.875837803E0,7.332169056E0
4.088507510E-1,2.224803567E-1,5.911749363E0,7.183734417E0
4.112779900E-1,2.081157565E-1,5.914143562E0,6.982630253E0
4.137044490E-1,2.129039466E-1,5.957237244E0,6.860531330E0
4.161309070E-1,1.793865710E-1,5.990754128E0,6.745614529E0
4.185581470E-1,2.033275664E-1,6.012301445E0,6.621121407E0
4.209853860E-1,1.817806661E-1,6.062577248E0,6.534934044E0
4.234117920E-1,5.249933153E-2,6.060183525E0,6.463110924E0
4.258382510E-1,-6.720560044E-2,6.024271965E0,6.422410965E0
4.282655420E-1,-1.462108791E-1,6.036242485E0,6.281159401E0
4.306927300E-1,-2.036692202E-1,6.041030407E0,6.183001518E0
4.331191880E-1,-3.377387524E-1,6.043424606E0,6.111178398E0
4.355456470E-1,-4.742023945E-1,6.067365646E0,6.053719997E0
4.379728860E-1,-5.125079751E-1,6.143976688E0,5.977108955E0
4.404001260E-1,-6.106659770E-1,6.206223488E0,5.967532158E0
4.428265320E-1,-6.729125381E-1,6.249317169E0,5.953167915E0
4.452529900E-1,-6.872771978E-1,6.242135048E0,5.893315315E0
4.476802820E-1,-7.184004188E-1,6.184676170E0,5.823886395E0
4.501074690E-1,-7.088240385E-1,6.158341408E0,5.747275352E0
4.525339280E-1,-7.207945585E-1,6.122429848E0,5.665875912E0
4.549603860E-1,-6.920653582E-1,6.076941967E0,5.617993832E0
4.573876260E-1,-6.561538577E-1,6.002724648E0,5.584476471E0
4.598148650E-1,-6.082719564E-1,5.878232002E0,5.515048027E0
4.622412720E-1,-5.388430953E-1,5.763315201E0,5.498288631E0
4.646677300E-1,-5.460253954E-1,5.686703682E0,5.459983349E0
4.670950220E-1,-5.723604560E-1,5.650792122E0,5.373795986E0
4.695222610E-1,-5.196902752E-1,5.622063160E0,5.388160229E0
4.719486670E-1,-4.837788343E-1,5.691492558E0,5.364219189E0
4.743751260E-1,-4.287145138E-1,5.705856800E0,5.325913906E0
4.768023650E-1,-3.544974625E-1,5.713038921E0,5.373795986E0
4.792296050E-1,-2.994332016E-1,5.720221519E0,5.364219189E0
4.816560110E-1,-2.347925305E-1,5.710644722E0,5.354642868E0
4.840824690E-1,-1.773341596E-1,5.672339439E0,5.404919147E0
4.865097610E-1,-1.653636694E-1,5.643610477E0,5.445618629E0
4.889370010E-1,-1.342403889E-1,5.629245281E0,5.534200191E0
4.913634070E-1,-1.318462491E-1,5.578969479E0,5.598841190E0
4.937898650E-1,-1.390285790E-1,5.490387917E0,5.685029030E0
4.962171050E-1,-1.366344690E-1,5.459264278E0,5.823886395E0
4.986443440E-1,-1.845164299E-1,5.394623756E0,5.948379517E0
5.010708030E-1,-1.893046200E-1,5.334771156E0,6.106389999E0
5.034972610E-1,-1.509990692E-1,5.267736912E0,6.235671520E0
5.059245010E-1,-1.821223497E-1,5.217460632E0,6.362558842E0
5.083517400E-1,-1.677577496E-1,5.133667469E0,6.448746204E0
5.107781470E-1,-1.749400795E-1,5.080996990E0,6.549298286E0
5.132046050E-1,-1.390285790E-1,5.018750191E0,6.621121407E0
5.156318970E-1,-1.079052761E-1,4.934957027E0,6.692944527E0
5.180590840E-1,-1.079052761E-1,4.863133907E0,6.731249809E0
5.204855420E-1,-1.031170711E-1,4.719487667E0,6.764767170E0
5.229120010E-1,-8.875250071E-2,4.578236103E0,6.798285007E0
5.253392400E-1,-1.174816713E-1,4.283762455E0,6.903625011E0
5.277664800E-1,-1.126934811E-1,4.132933617E0,6.996994972E0
5.301928860E-1,-8.396429569E-2,4.089839935E0,7.071211815E0
5.326193440E-1,-6.241741031E-2,4.034775734E0,7.193310738E0
5.350466360E-1,-2.411182970E-2,3.953376532E0,7.327380180E0
5.374738760E-1,3.095244616E-2,3.857612848E0,7.425538540E0
5.399002820E-1,1.075636074E-1,3.797760248E0,7.535666943E0
5.423267400E-1,1.650219858E-1,3.776213408E0,7.672131062E0
5.447539800E-1,2.488154471E-1,3.771425009E0,7.787047386E0
5.471812190E-1,3.134560883E-1,3.713966846E0,7.911540508E0
5.496076260E-1,3.924613297E-1,3.666084766E0,8.009698868E0
5.520340840E-1,4.211905301E-1,3.611020565E0,8.112645149E0
5.544613760E-1,4.834370911E-1,3.599050045E0,8.182074547E0
5.568886150E-1,5.193486214E-1,3.539197683E0,8.258685112E0
5.593150220E-1,5.456836820E-1,3.479345083E0,8.344872475E0
5.617414800E-1,5.696246624E-1,3.419492483E0,8.416696548E0
5.641687190E-1,5.600482821E-1,3.352457762E0,8.490913391E0
5.665959590E-1,5.528659821E-1,3.304575920E0,8.596253395E0
5.690224170E-1,5.385013819E-1,3.297393560E0,8.651317596E0
5.714488760E-1,5.073781013E-1,3.294999599E0,8.751869202E0
5.738761150E-1,4.594961107E-1,3.271058559E0,8.833269119E0
5.763033550E-1,3.852790594E-1,3.280635118E0,8.919456482E0
5.787297610E-1,3.493675888E-1,3.242329359E0,8.964943886E0
5.811562190E-1,2.655741274E-1,3.230358839E0,8.981703758E0
5.835834590E-1,1.985393614E-1,3.206417799E0,9.022402763E0
5.860107510E-1,1.123518050E-1,3.213600159E0,9.063102722E0
5.884371570E-1,5.249933153E-2,3.206417799E0,9.079861641E0
5.908636150E-1,-9.747229517E-3,3.189659119E0,9.051132202E0
5.932908550E-1,-7.199379057E-2,3.156141758E0,9.024797440E0
5.957180940E-1,-1.270580888E-1,3.129806757E0,8.996067047E0
5.981445010E-1,-1.605754793E-1,3.081924915E0,8.962550163E0
6.005709590E-1,-2.084574401E-1,3.005313635E0,8.909880638E0
6.029982510E-1,-2.276102304E-1,2.928702354E0,8.919456482E0
6.054254900E-1,-2.635217011E-1,2.830544233E0,8.919456482E0
6.078518970E-1,-3.185859621E-1,2.770691872E0,8.941003799E0
6.102783550E-1,-3.568915725E-1,2.698868990E0,8.998461723E0
6.127055940E-1,-3.951971531E-1,2.593528509E0,9.067890167E0
6.151328340E-1,-3.808325231E-1,2.473823547E0,9.118165970E0
6.175592920E-1,-3.401328921E-1,2.366089344E0,9.211536407E0
6.199857510E-1,-2.874626815E-1,2.220049381E0,9.333635330E0
6.224129900E-1,-2.347925305E-1,2.131467581E0,9.455734253E0
6.248402300E-1,-1.701518595E-1,2.038097620E0,9.565863609E0
6.272666360E-1,-1.749400795E-1,1.966274619E0,9.738238335E0
6.296930940E-1,-1.629695594E-1,1.923180819E0,9.901037216E0
6.321203860E-1,-1.222698763E-1,1.865722418E0,1.002313614E1
6.345475740E-1,-1.174816713E-1,1.789111376E0,1.016917610E1
6.369740320E-1,-9.354069084E-2,1.743623495E0,1.023142242E1
6.394004900E-1,-5.762920529E-2,1.719682455E0,1.033676338E1
6.418277300E-1,-3.608230501E-2,1.707711935E0,1.039422131E1
6.442549690E-1,-3.129412979E-2,1.695741415E0,1.046365070E1
6.466813760E-1,-9.747229517E-3,1.678982854E0,1.049237919E1
6.491078340E-1,3.334654868E-2,1.657435775E0,1.054026127E1
6.515351260E-1,4.771113396E-2,1.631100774E0,1.058574963E1
6.539623650E-1,5.728753284E-2,1.588006973E0,1.059771919E1
6.563887720E-1,5.968163162E-2,1.576036572E0,1.063123703E1
6.588152300E-1,8.601672202E-2,1.573642492E0,1.065278435E1
6.612424690E-1,1.243222952E-1,1.588006973E0,1.067193699E1
6.636697090E-1,1.578396857E-1,1.614342093E0,1.065517807E1
6.660961670E-1,1.817806661E-1,1.592795253E0,1.060490227E1
6.685226260E-1,2.512095273E-1,1.530548692E0,1.051153278E1
6.709498650E-1,2.679682076E-1,1.520972252E0,1.048519707E1
6.733771050E-1,2.679682076E-1,1.516184092E0,1.040619278E1
6.758035110E-1,3.158501983E-1,1.473090291E0,1.030563927E1
6.782299690E-1,3.302147985E-1,1.489848971E0,1.024578762E1
6.806572610E-1,3.062737882E-1,1.518578172E0,1.020987511E1
6.830845010E-1,2.966974080E-1,1.556883693E0,1.016199303E1
6.855109070E-1,2.799387276E-1,1.588006973E0,1.015002346E1
6.879373650E-1,2.488154471E-1,1.655041814E0,1.019551086E1
6.903646050E-1,2.009334564E-1,1.705317855E0,1.026733398E1
6.927918440E-1,1.027754098E-1,1.757988095E0,1.035112762E1
6.952183030E-1,4.292293638E-2,1.755593896E0,1.046125603E1
6.976447610E-1,-1.692952961E-2,1.729258776E0,1.055941391E1
7.000720010E-1,7.011465728E-3,1.676588655E0,1.064081287E1
7.024992400E-1,-2.564936876E-3,1.602371573E0,1.067911911E1
7.049256470E-1,3.574064374E-2,1.501819491E0,1.070545387E1
7.073521050E-1,1.291105002E-1,1.396479130E0,1.071981812E1
7.097793970E-1,2.847269177E-1,1.295926929E0,1.072221375E1
7.122065840E-1,4.116141498E-1,1.231286287E0,1.073657703E1
7.146330420E-1,5.193486214E-1,1.248044968E0,1.077248955E1
7.170595010E-1,6.270830035E-1,1.243256807E0,1.088501167E1
7.194867400E-1,6.629945040E-1,1.243256807E0,1.094247055E1
7.219139800E-1,7.443938851E-1,1.226498127E0,1.099992847E1
7.243403860E-1,7.898817658E-1,1.183404326E0,1.106456947E1
7.267668440E-1,8.353696465E-1,1.090034485E0,1.112442112E1
7.291941360E-1,8.688870072E-1,1.015817404E0,1.118906212E1
7.316213760E-1,8.497341871E-1,9.463886023E-1,1.127764416E1
7.340477820E-1,8.138227463E-1,9.104771614E-1,1.137819672E1
7.364742400E-1,7.324233651E-1,8.769597411E-1,1.145480728E1
7.389014800E-1,6.797531843E-1,8.458364606E-1,1.151944733E1
7.413287190E-1,6.222948432E-1,8.386541605E-1,1.156732941E1
7.437551780E-1,5.600482821E-1,8.123190403E-1,1.154099464E1
7.461816360E-1,5.839892626E-1,8.171072602E-1,1.151705360E1
7.486088760E-1,6.294771433E-1,7.883780599E-1,1.142368412E1
7.510361150E-1,7.084823847E-1,7.907721996E-1,1.139734840E1
7.534625220E-1,7.970640659E-1,8.099250197E-1,1.131355572E1
7.558889800E-1,8.976162076E-1,7.907721996E-1,1.127285576E1
7.583162720E-1,9.670450687E-1,7.955603600E-1,1.124412632E1
7.607435110E-1,9.861978889E-1,7.811958194E-1,1.124652004E1
7.631699170E-1,1.022109389E0,7.788016796E-1,1.126567364E1
7.655963760E-1,1.041262150E0,8.099250197E-1,1.125130844E1
7.680236150E-1,1.053232670E0,8.458364606E-1,1.121300316E1
7.704508550E-1,1.060414910E0,8.865361214E-1,1.116512108E1
7.728773130E-1,9.838037491E-1,9.368122220E-1,1.113878632E1
7.753037720E-1,9.047985077E-1,1.056517124E0,1.113639259E1
7.777310110E-1,8.114286065E-1,1.118763685E0,1.115315056E1
7.801582510E-1,6.989060044E-1,1.305503368E0,1.117948532E1
7.825846570E-1,5.744128823E-1,1.420420051E0,1.122736740E1
7.850111150E-1,4.403433502E-1,1.451543331E0,1.123455048E1
7.874384070E-1,3.565498888E-1,1.511395812E0,1.123215675E1
7.898656470E-1,2.823328078E-1,1.494637251E0,1.119385052E1
7.922920530E-1,1.817806661E-1,1.480272532E0,1.116512108E1
7.947185110E-1,1.051695049E-1,1.437178850E0,1.110287476E1
7.971457510E-1,3.574064374E-2,1.374932170E0,1.102386951E1
7.995729900E-1,-3.368820995E-2,1.331838489E0,1.092092323E1
8.019994490E-1,-1.079052761E-1,1.260015488E0,1.084910011E1
8.044259070E-1,-1.557872593E-1,1.185798407E0,1.074854851E1
8.068531470E-1,-2.156397104E-1,1.102005005E0,1.066236019E1
8.092803860E-1,-2.635217011E-1,1.054122925E0,1.057138443E1
8.117067920E-1,-3.114036918E-1,9.823000431E-1,1.049237919E1
8.141332510E-1,-3.090095818E-1,9.439945221E-1,1.042773819E1
8.165605420E-1,-2.994332016E-1,8.985066414E-1,1.038464546E1
8.189877820E-1,-2.826744914E-1,8.745656610E-1,1.038225174E1
8.214141880E-1,-2.659158111E-1,8.745656610E-1,1.038703918E1
8.238406470E-1,-2.323984206E-1,8.673833013E-1,1.039422131E1
8.262678860E-1,-2.587335110E-1,8.673833013E-1,1.040379715E1
8.286951260E-1,-2.874626815E-1,8.530187607E-1,1.043013287E1
8.311215320E-1,-3.353446722E-1,8.673833013E-1,1.044689178E1
8.335479900E-1,-4.095617533E-1,8.817479610E-1,1.046365070E1
8.359752820E-1,-4.646260142E-1,8.578069210E-1,1.045167923E1
8.384025220E-1,-5.388430953E-1,8.506246209E-1,1.043731499E1
8.408289280E-1,-5.986955166E-1,8.506246209E-1,1.038703918E1
8.432553860E-1,-6.441833973E-1,8.625951409E-1,1.030803394E1
8.456826260E-1,-6.968535781E-1,8.554129004E-1,1.021945190E1
8.481099170E-1,-7.447355390E-1,8.841419816E-1,1.009735298E1
8.505363240E-1,-8.045880198E-1,9.248417020E-1,9.929766655E0
8.529627820E-1,-8.859873414E-1,9.439945221E-1,9.747814178E0
