"Time (s)","Acceleration x (m/s^2)","Acceleration y (m/s^2)","Acceleration z (m/s^2)"
2.846834300E-2,-3.553341627E0,3.306581736E0,8.157431602E0
3.089063400E-2,-3.503092289E0,3.304188967E0,8.334799767E0
3.331250900E-2,-3.500699520E0,3.368795156E0,8.468797684E0
3.573396800E-2,-3.498306751E0,3.366402388E0,8.571688652E0
3.815579100E-2,-3.469592810E0,3.404687405E0,8.681758881E0
4.057766600E-2,-3.479164124E0,3.414258718E0,8.732007980E0
4.299995700E-2,-3.534198999E0,3.445365429E0,8.791828156E0
4.542183200E-2,-3.527020693E0,3.428615808E0,8.849256516E0
4.784323800E-2,-3.586841106E0,3.474079370E0,8.916554451E0
5.026553000E-2,-3.651447296E0,3.507578850E0,9.014659882E0
5.268740500E-2,-3.745066643E0,3.584149122E0,9.201300621E0
6.998568600E-2,-3.991527319E0,5.006382942E0,1.006092167E1
7.246172800E-2,-3.991527319E0,5.032704353E0,1.049402237E1
7.493740500E-2,-3.948456526E0,5.030311584E0,1.082453156E1
7.741282200E-2,-3.907778502E0,4.992026329E0,1.098485088E1
7.988803000E-2,-3.843172312E0,4.975276470E0,1.103988552E1
8.236303000E-2,-3.773780346E0,4.941776752E0,1.100160027E1
8.483782200E-2,-3.665804386E0,4.886742115E0,1.086760235E1
8.731235300E-2,-3.500699520E0,4.858027935E0,1.067139053E1
8.978667600E-2,-3.381058455E0,4.795814991E0,1.044138050E1
9.226089500E-2,-3.232703447E0,4.742873669E0,1.024038315E1
9.473490500E-2,-3.064906597E0,4.659124851E0,1.001276588E1
9.720870700E-2,-2.899801970E0,4.582554340E0,9.785448074E0
9.968240500E-2,-2.734697104E0,4.462913513E0,9.584450722E0
1.021559990E-1,-2.569293261E0,4.350450516E0,9.378369331E0
1.046293840E-1,-2.416152716E0,4.201796532E0,9.165408134E0
1.071026660E-1,-2.258226395E0,4.077369690E0,8.957232475E0
1.095758430E-1,-2.121835470E0,3.924229145E0,8.708079338E0
1.120489160E-1,-1.961217284E0,3.747160196E0,8.387441635E0
1.145218320E-1,-1.741077542E0,3.560220957E0,8.037790298E0
1.169945930E-1,-1.398604870E0,3.337688446E0,7.484749317E0
1.194673010E-1,-6.924230456E-1,2.844467878E0,6.428916454E0
1.219399050E-1,-1.495514158E-2,2.420639277E0,5.502295494E0
1.244124050E-1,2.126621157E-1,2.198106766E0,5.081159115E0
1.268848010E-1,1.668993831E-1,2.073679924E0,4.958825588E0
1.293570930E-1,-1.154536903E-1,2.121536493E0,5.160121918E0
1.318293840E-1,-5.584250093E-1,2.265105724E0,5.485546112E0
1.343015720E-1,-1.049252748E0,2.444567442E0,5.765805244E0
1.367736550E-1,-1.479960799E0,2.593221426E0,6.050550938E0
1.392457380E-1,-1.791326880E0,2.751147747E0,6.251847267E0
1.417178220E-1,-2.057229280E0,2.904288530E0,6.474380016E0
1.441898010E-1,-2.145763636E0,3.088535786E0,6.641877651E0
1.466616760E-1,-2.207977057E0,3.244368315E0,6.833602428E0
1.491335510E-1,-2.186441660E0,3.340081215E0,6.955636501E0
1.516054260E-1,-2.093121529E0,3.378366470E0,7.087241650E0
1.540771970E-1,-2.073979139E0,3.383152008E0,7.367500782E0
1.565488630E-1,-2.155334949E0,3.395116329E0,7.812865257E0
1.590205300E-1,-2.291725874E0,3.371187925E0,8.382656097E0
1.614921970E-1,-2.492722988E0,3.263510942E0,9.196515083E0
1.639637590E-1,-2.749054193E0,3.141477108E0,1.019252682E1
1.664352180E-1,-2.933301449E0,3.007179976E0,1.099202919E1
1.689066760E-1,-3.031407118E0,2.897109985E0,1.140150070E1
1.713562070E-1,-2.981158018E0,2.791825771E0,1.130818081E1
1.737805300E-1,-2.813660383E0,2.751147747E0,1.082692432E1
1.762019880E-1,-2.440080881E0,2.657827854E0,1.056102180E1
1.786242800E-1,-2.030609131E0,2.509173632E0,1.060917759E1
1.810465200E-1,-1.621436477E0,2.296212435E0,1.096092224E1
1.834679780E-1,-1.350748420E0,2.090429783E0,1.146371460E1
1.858894360E-1,-1.178465128E0,1.872383714E0,1.205264759E1
1.883117280E-1,-9.798609018E-1,1.666600943E0,1.255543995E1
1.907339680E-1,-8.048857450E-1,1.475175142E0,1.295294762E1
1.931554260E-1,-5.632106066E-1,1.326521039E0,1.314915848E1
1.955768840E-1,-2.829512656E-1,1.187737346E0,1.326640701E1
1.979991760E-1,3.529413417E-2,1.036989570E0,1.331904888E1
2.004214160E-1,3.466601670E-1,9.293124676E-1,1.338365555E1
2.028428740E-1,6.577271223E-1,8.093722463E-1,1.345813179E1
2.052643320E-1,9.308080077E-1,7.160521746E-1,1.351795197E1
2.076866240E-1,1.189232826E0,6.299105883E-1,1.353470230E1
2.101089160E-1,1.421635747E0,5.557330847E-1,1.351555920E1
2.125303220E-1,1.579562068E0,5.102694035E-1,1.344616795E1
2.149517800E-1,1.696810365E0,4.528416991E-1,1.342463207E1
2.173740720E-1,1.732702732E0,4.241278172E-1,1.334537029E1
2.197963630E-1,1.751845241E0,3.355933726E-1,1.321137238E1
2.222177700E-1,1.749452472E0,3.188436031E-1,1.307498074E1
2.246392280E-1,1.713560104E0,2.491526604E-1,1.283330631E1
2.270615200E-1,1.692024708E0,2.036890239E-1,1.252194023E1
2.294838110E-1,1.639382601E0,1.725823283E-1,1.209571838E1
2.319052180E-1,1.610668778E0,1.749751568E-1,1.162642574E1
2.343266760E-1,1.572383523E0,1.223330572E-1,1.110927773E1
2.367489680E-1,1.569990754E0,1.295115203E-1,1.057298565E1
2.391712590E-1,1.395314693E0,1.749751568E-1,1.001515961E1
2.415926660E-1,1.210768223E0,2.587239444E-1,9.447761536E0
2.440141240E-1,1.009771109E0,3.403790295E-1,8.887541771E0
2.464364160E-1,8.111668825E-1,4.336991012E-1,8.310571671E0
2.488587070E-1,5.667998791E-1,5.485545993E-1,7.712067604E0
2.512801130E-1,3.490529954E-1,6.514459848E-1,7.127919674E0
2.537015720E-1,1.429711580E-1,7.256234884E-1,6.632306099E0
2.561238630E-1,6.580262445E-3,8.141579032E-1,6.215955257E0
2.585461550E-1,-6.520441920E-2,8.766704202E-1,5.868696690E0
2.609675610E-1,-1.250249892E-1,8.694919348E-1,5.619843006E0
2.633890200E-1,-1.034895778E-1,9.293124676E-1,5.487938881E0
2.658113110E-1,-8.434699476E-2,9.747761488E-1,5.423332691E0
2.682336030E-1,-2.991028363E-3,9.939187169E-1,5.442475319E0
2.706550610E-1,1.094716340E-1,9.915258884E-1,5.497509956E0
2.730765200E-1,2.341975123E-1,9.245268703E-1,5.574379444E0
2.754987590E-1,3.897309899E-1,8.620143533E-1,5.674878120E0
2.779210510E-1,5.285146832E-1,7.734799385E-1,5.799304962E0
2.803425090E-1,6.433702111E-1,6.777670383E-1,5.966802597E0
2.827639680E-1,7.704889178E-1,5.581258535E-1,6.203990936E0
2.851862070E-1,8.231309652E-1,4.097708762E-1,6.498308182E0
2.876084990E-1,8.207381964E-1,2.539383173E-1,6.826424122E0
2.900299570E-1,7.271189690E-1,3.858426586E-2,7.216753006E0
2.924514160E-1,6.074778438E-1,-1.911267042E-1,7.657032490E0
2.948736550E-1,4.016951025E-1,-4.378865361E-1,8.076075554E0
2.972959470E-1,1.501496136E-1,-7.010970116E-1,8.468797684E0
2.997174050E-1,-1.082752272E-1,-9.646066427E-1,8.803792953E0
3.021388630E-1,-3.547359705E-1,-1.208674550E0,9.155837059E0
3.045611550E-1,-5.488536954E-1,-1.426720500E0,9.474381447E0
3.069833950E-1,-7.019943595E-1,-1.596610904E0,9.835697174E0
3.094048530E-1,-8.431708813E-1,-1.759322882E0,1.017338467E1
3.118263110E-1,-9.293124676E-1,-1.881356835E0,1.054905796E1
3.142485510E-1,-9.463613629E-1,-1.958226204E0,1.081735325E1
3.166708430E-1,-9.125627279E-1,-1.996511340E0,1.107817078E1
3.190923010E-1,-8.024929166E-1,-1.982154489E0,1.127228832E1
3.215137590E-1,-6.349952817E-1,-1.970190287E0,1.147567844E1
3.239360510E-1,-4.220340848E-1,-1.907677889E0,1.163599777E1
3.263582910E-1,-1.585244983E-1,-1.811964989E0,1.176072311E1
3.287797490E-1,1.070788130E-1,-1.699502230E0,1.182772255E1
3.312012070E-1,3.969094455E-1,-1.534397483E0,1.182054424E1
3.336234990E-1,6.792625189E-1,-1.361815214E0,1.173679543E1
3.360457380E-1,9.403793216E-1,-1.191924810E0,1.164317608E1
3.384671970E-1,1.148554921E0,-1.010070205E0,1.146610737E1
3.408886550E-1,1.354636669E0,-8.353942037E-1,1.134646606E1
3.433109470E-1,1.536491275E0,-6.843472719E-1,1.115503979E1
3.457331860E-1,1.696810365E0,-5.431707501E-1,1.086999512E1
3.481546450E-1,1.883749604E0,-4.043870270E-1,1.055145073E1
3.505761030E-1,2.060818434E0,-2.919243574E-1,1.013270664E1
3.529983950E-1,2.213959217E0,-2.150549293E-1,9.706484795E0
3.554206340E-1,2.326421738E0,-1.432702541E-1,9.227621078E0
3.578420930E-1,2.424527645E0,-9.780662507E-2,8.825327873E0
3.602635510E-1,2.477468729E0,-6.191428751E-2,8.440083504E0
3.626858430E-1,2.525325298E0,-1.645065658E-2,8.128717422E0
3.651080820E-1,2.542074919E0,-3.080759197E-2,7.910970688E0
3.675295410E-1,2.549253464E0,-6.430710852E-2,7.812865257E0
3.699509990E-1,2.573181629E0,-1.265204996E-1,7.784151077E0
3.723732910E-1,2.532503605E0,-2.174477577E-1,7.793722630E0
3.747955300E-1,2.451147795E0,-3.469592929E-1,7.930113316E0
3.772169880E-1,2.347957134E0,-5.096712112E-1,8.092824936E0
3.796384470E-1,2.154138565E0,-6.819544435E-1,8.296215057E0
3.820607380E-1,1.950748682E0,-8.712865710E-1,8.499904633E0
3.844830300E-1,1.715952992E0,-1.096211910E0,8.720044136E0
3.869044360E-1,1.543669701E0,-1.297209024E0,8.940483093E0
3.893258950E-1,1.321137190E0,-1.567897081E0,9.213264465E0
3.917481860E-1,1.076770186E0,-1.828714728E0,9.574879646E0
3.941704780E-1,8.422735929E-1,-2.092224360E0,9.878767967E0
3.965918840E-1,5.189434290E-1,-2.391327143E0,1.001037312E1
3.990133430E-1,1.860419661E-1,-2.683550596E0,1.006570721E1
4.014356340E-1,8.315058798E-2,-2.798406124E0,9.838089943E0
4.038579260E-1,1.740778536E-1,-2.860619545E0,9.371191025E0
4.062793320E-1,3.131606579E-1,-2.968296528E0,9.052945137E0
4.087007910E-1,4.974080026E-1,-3.102593660E0,9.031410217E0
4.111230820E-1,5.644070506E-1,-3.217449188E0,9.155837059E0
4.135453740E-1,5.380859971E-1,-3.341876030E0,9.282656670E0
4.159667800E-1,4.328017831E-1,-3.411267757E0,9.318549156E0
4.183882380E-1,3.921238184E-1,-3.392125130E0,9.402297020E0
4.208105300E-1,4.926223755E-1,-3.272484064E0,9.534201622E0
4.232328220E-1,6.936194897E-1,-3.035295486E0,9.713663101E0
4.256542280E-1,1.016949654E0,-2.707478762E0,9.893125534E0
4.280756860E-1,1.383350611E0,-2.333899498E0,9.996016502E0
4.304979780E-1,1.816451430E0,-1.893320918E0,9.984052658E0
4.329202700E-1,2.280958176E0,-1.467398524E0,9.864411354E0
4.353416760E-1,2.745464802E0,-1.091426253E0,9.747162819E0
4.377631340E-1,3.221935749E0,-7.226324677E-1,9.598808289E0
4.401854260E-1,3.617050648E0,-3.900300860E-1,9.491130829E0
4.426077180E-1,3.987937927E0,-8.105687052E-2,9.323334694E0
4.450291760E-1,4.294518471E0,2.371885478E-1,9.134301186E0
4.474506340E-1,4.615156651E0,5.629115105E-1,8.918947220E0
4.498728740E-1,4.881059170E0,9.077770710E-1,8.724829674E0
4.522951660E-1,5.086842060E0,1.216451168E0,8.588438988E0
4.547166240E-1,5.232803822E0,1.489532113E0,8.473583221E0
4.571380820E-1,5.357530117E0,1.822134495E0,8.435297966E0
4.595603220E-1,5.369493961E0,2.111965179E0,8.243573189E0
4.619826130E-1,5.393422127E0,2.365604401E0,8.030611992E0
4.644040720E-1,5.443671703E0,2.578864574E0,7.901399612E0
4.668255300E-1,5.472385406E0,2.710469961E0,7.798508167E0
4.692477700E-1,5.462814331E0,2.743969440E0,7.750352383E0
4.716700610E-1,5.419743061E0,2.724826813E0,7.781758308E0
4.740915200E-1,5.297709465E0,2.643470764E0,7.824829102E0
4.765129780E-1,5.156233788E0,2.482852697E0,7.889435291E0
4.789352700E-1,4.993521690E0,2.277069807E0,8.047361374E0
4.813575090E-1,4.835595608E0,2.056930065E0,8.289036751E0
4.837789680E-1,4.689633369E0,1.764706731E0,8.626724243E0
4.862004260E-1,4.493122578E0,1.477568030E0,8.988339424E0
4.886226660E-1,4.359124660E0,1.221236825E0,9.416654587E0
4.910449570E-1,4.282554150E0,9.723833203E-1,9.960124016E0
4.934664160E-1,4.215555191E0,7.782655358E-1,1.057537842E1
4.958878740E-1,4.153341770E0,6.227321029E-1,1.122203922E1
4.983101660E-1,4.146163464E0,4.695914388E-1,1.175115204E1
5.007324050E-1,4.148556232E0,2.874378264E-1,1.218903828E1
5.031538630E-1,4.174877167E0,1.295115203E-1,1.251954746E1
5.055753220E-1,4.268197536E0,-3.080759197E-2,1.271097279E1
5.079976130E-1,4.361517429E0,-2.222333997E-1,1.273490143E1
5.104198530E-1,4.445266247E0,-4.163511395E-1,1.269183064E1
5.128413110E-1,4.514657974E0,-6.556333899E-1,1.258893871E1
5.152627700E-1,4.514657974E0,-8.688937426E-1,1.247886944E1
5.176850610E-1,4.440480709E0,-1.050748229E0,1.238794231E1
5.201073010E-1,4.385445595E0,-1.201496124E0,1.231376457E1
5.225287590E-1,4.325624943E0,-1.256531000E0,1.216271782E1
5.249502180E-1,4.339982033E0,-1.196710467E0,1.192104244E1
5.273725090E-1,4.330410957E0,-1.043569803E0,1.164796162E1
5.297947490E-1,4.220340729E0,-8.808578253E-1,1.133210850E1
5.322162070E-1,3.985545158E0,-6.699903607E-1,1.095852947E1
5.346376660E-1,3.779762506E0,-4.139583111E-1,1.052273655E1
5.370599570E-1,3.597908020E0,-2.030908167E-1,9.988838196E0
5.394821970E-1,3.444468260E0,2.662015148E-2,9.325727463E0
5.419036550E-1,3.312862873E0,3.164508045E-1,8.672187805E0
5.443251130E-1,3.257827997E0,6.538388133E-1,7.973184109E0
5.467474050E-1,3.212364435E0,1.092024446E0,7.233502865E0
5.491696450E-1,3.231507063E0,1.578066587E0,6.529414654E0
5.515911030E-1,3.250649452E0,2.052144527E0,5.957231045E0
5.540125610E-1,3.257827997E0,2.485245466E0,5.598307610E0
5.564348530E-1,3.226721287E0,2.820539713E0,5.327619553E0
5.588571450E-1,3.186043262E0,3.050250769E0,5.167300701E0
5.612785510E-1,3.205185890E0,3.220440149E0,5.143372059E0
5.637000090E-1,3.231507063E0,3.318545818E0,5.136193752E0
5.661223010E-1,3.178864956E0,3.337688446E0,5.164907455E0
5.685445930E-1,3.147758245E0,3.313760281E0,5.286941528E0
5.709659990E-1,3.104687452E0,3.230011463E0,5.454439163E0
5.733874570E-1,3.083152056E0,3.124727249E0,5.691627979E0
5.758097490E-1,3.138186932E0,2.995215654E0,5.985944748E0
5.782320410E-1,3.209971666E0,2.870789051E0,6.251847267E0
5.806534470E-1,3.209971666E0,2.751147747E0,6.565307140E0
5.830749050E-1,3.183650494E0,2.583650351E0,6.862316132E0
5.854971970E-1,3.095116138E0,2.360818624E0,7.151847839E0
5.879194880E-1,2.972783089E0,2.090429783E0,7.372286797E0
5.903408950E-1,2.841177702E0,1.793420553E0,7.546962738E0
5.927623530E-1,2.807678223E0,1.427318692E0,7.690532207E0
5.951846450E-1,2.776571512E0,1.063310504E0,7.728816986E0
5.976069360E-1,2.769393206E0,7.064808607E-1,7.774580002E0
6.000283950E-1,2.755036116E0,3.355933726E-1,7.827221870E0
6.024498530E-1,2.752643347E0,-2.362912335E-2,7.855936050E0
6.048720930E-1,2.795714140E0,-3.732803464E-1,7.944470406E0
6.072943840E-1,2.879462957E0,-6.340979934E-1,8.073682785E0
6.097158430E-1,2.941676378E0,-8.063812256E-1,8.186145782E0
6.121373010E-1,3.049652576E0,-8.641080856E-1,8.346763611E0
6.145595410E-1,3.102294445E0,-8.015955687E-1,8.504690170E0
6.169818320E-1,3.121437073E0,-7.106683254E-1,8.650651932E0
6.194032910E-1,3.087937593E0,-5.694918036E-1,8.834898949E0
6.218247490E-1,3.075973511E0,-4.163511395E-1,9.002696037E0
6.242469880E-1,3.078366280E0,-2.437688112E-1,9.158229828E0
6.266692800E-1,3.114258766E0,-1.405783277E-2,9.177371979E0
6.290907380E-1,3.255435228E0,2.443670183E-1,9.084052086E0
6.315121970E-1,3.399004459E0,5.653043389E-1,8.880363464E0
6.339344360E-1,3.482753277E0,9.173483849E-1,8.605188370E0
6.363567280E-1,3.537788391E0,1.297807217E0,8.301000595E0
6.387781860E-1,3.506681681E0,1.654636860E0,8.143074989E0
6.411996450E-1,3.384647608E0,1.956132531E0,8.135895729E0
6.436218840E-1,3.322434187E0,2.327319145E0,8.231609344E0
6.460441760E-1,3.360719442E0,2.734398127E0,8.310571671E0
6.484656340E-1,3.501895905E0,3.129513025E0,8.140681267E0
6.508870930E-1,3.681656837E0,3.509971619E0,7.640282631E0
6.533093840E-1,3.940081596E0,3.814159393E0,6.888637066E0
6.557316240E-1,4.162913322E0,4.122833252E0,6.227919102E0
6.581530820E-1,4.344767570E0,4.427021027E0,5.696413517E0
6.605745410E-1,4.409373760E0,4.704588413E0,5.397011280E0
6.629968320E-1,4.435695171E0,5.042275429E0,5.167300701E0
6.654190720E-1,4.423730850E0,5.293521881E0,5.035695076E0
6.678405300E-1,4.459623337E0,5.458925724E0,5.011766911E0
6.702619880E-1,4.481158733E0,5.552245617E0,5.088337421E0
6.726842800E-1,4.495515347E0,5.583352566E0,5.212764263E0
6.751065200E-1,4.574478626E0,5.595316887E0,5.320441246E0
6.775279780E-1,4.725525856E0,5.547460079E0,5.454439163E0
6.799494360E-1,4.885844707E0,5.497210979E0,5.636592865E0
6.823717280E-1,5.053342342E0,5.420640469E0,5.830411434E0
6.847939680E-1,5.141876698E0,5.252843857E0,6.014658928E0
6.872154260E-1,5.127519608E0,5.054239750E0,6.251847267E0
6.896368840E-1,5.122734070E0,4.800600529E0,6.519843578E0
6.920591760E-1,5.091627598E0,4.424628258E0,6.862316132E0
6.944814160E-1,5.103591442E0,4.096512318E0,7.240681171E0
6.969028740E-1,5.122734070E0,3.713660717E0,7.590033531E0
6.993243320E-1,5.213661671E0,3.335295677E0,7.908577919E0
7.017466240E-1,5.369493961E0,2.952144861E0,8.255537033E0
7.041688630E-1,5.546562672E0,2.576471806E0,8.547760963E0
7.065903220E-1,5.711667538E0,2.198106766E0,8.825327873E0
7.090117800E-1,5.807679653E0,1.812563181E0,9.076873779E0
7.114340720E-1,5.865107536E0,1.419841170E0,9.299406052E0
7.138563630E-1,5.984748363E0,1.063310504E0,9.692128181E0
7.162777700E-1,6.087639809E0,8.261220455E-1,9.993623734E0
7.186992280E-1,6.080461502E0,7.088736892E-1,1.008485031E1
7.211215200E-1,5.984748363E0,6.945167780E-1,1.010399246E1
7.235438110E-1,5.802595139E0,7.016952634E-1,1.015902805E1
7.259652180E-1,5.670989513E0,7.854440212E-1,1.018056297E1
7.283866760E-1,5.601597786E0,9.125627279E-1,1.010159969E1
7.308089680E-1,5.558526993E0,1.084846020E0,9.912267685E0
7.332312590E-1,5.525027275E0,1.295414329E0,9.668199539E0
7.356526660E-1,5.548955917E0,1.549352646E0,9.385547638E0
7.380741240E-1,5.608776093E0,1.824527264E0,8.990732193E0
7.404964160E-1,5.654240131E0,2.109572172E0,8.535796165E0
7.429187070E-1,5.759523869E0,2.394318104E0,8.097610474E0
7.453401130E-1,5.843572140E0,2.667398930E0,7.673782349E0
7.477615720E-1,5.960820198E0,2.851646423E0,7.286144733E0
7.501838630E-1,6.075675964E0,2.992822886E0,6.907779694E0
7.526061550E-1,6.101996899E0,3.136691332E0,6.613163471E0
7.550275610E-1,5.999105453E0,3.275475025E0,6.553342819E0
7.574490200E-1,5.824429512E0,3.493221998E0,6.613163471E0
7.598713110E-1,5.699703693E0,3.766302824E0,6.658926487E0
7.622936030E-1,5.675775528E0,4.060619831E0,6.694818497E0
7.647150610E-1,5.670989513E0,4.376771927E0,6.716353893E0
7.671365200E-1,5.714060307E0,4.690231323E0,6.718746662E0
7.695587590E-1,5.740381718E0,4.965705395E0,6.675675869E0
7.719810510E-1,5.749952793E0,5.164309502E0,6.629913330E0
7.744025090E-1,5.711667538E0,5.257629395E0,6.553342819E0
7.768239680E-1,5.625525951E0,5.315057278E0,6.498308182E0
7.792462070E-1,5.517848969E0,5.353342533E0,6.493522644E0
7.816684990E-1,5.288137913E0,5.367998600E0,6.529414654E0
7.840899570E-1,4.893023014E0,5.389533997E0,6.548557281E0
7.865114160E-1,4.423730850E0,5.427819252E0,6.529414654E0
7.889336550E-1,4.038187504E0,5.525924683E0,6.376274109E0
7.913559470E-1,3.904189348E0,5.652744293E0,6.088836193E0
7.937774050E-1,4.045365810E0,5.846562862E0,5.710770130E0
7.961988630E-1,4.452444553E0,5.973681927E0,5.126622677E0
7.986211550E-1,5.034199715E0,6.033502102E0,4.664508820E0
8.010433950E-1,5.675775528E0,5.930611134E0,4.575973988E0
8.034648530E-1,6.202495575E0,5.707779408E0,4.762614250E0
8.058863110E-1,6.573681831E0,5.403890610E0,5.114658356E0
8.083085510E-1,6.781857491E0,5.001597404E0,5.574379444E0
8.107308430E-1,6.836892605E0,4.561018944E0,6.086443424E0
8.131523010E-1,6.781857491E0,4.098905087E0,6.680461884E0
8.155737590E-1,6.669394970E0,3.677768469E0,7.283751965E0
8.179960510E-1,6.533003807E0,3.227618694E0,7.779365540E0
8.204182910E-1,6.437291145E0,2.767897606E0,8.152646065E0
8.228397490E-1,6.367899418E0,2.353640079E0,8.356334686E0
8.252612070E-1,6.375077724E0,1.953739643E0,8.408976555E0
8.276834990E-1,6.396613121E0,1.554138303E0,8.377870560E0
8.301057380E-1,6.410970211E0,1.223629713E0,8.219644547E0
8.325271970E-1,6.382256031E0,9.699904919E-1,7.999505043E0
8.349486550E-1,6.314958096E0,7.328019142E-1,7.702496052E0
8.373709470E-1,6.257530212E0,5.605186820E-1,7.396214962E0
8.397931860E-1,6.224030972E0,5.581258535E-1,7.298109055E0
8.422146450E-1,6.082854271E0,7.208378315E-1,7.312466145E0
8.446361030E-1,5.934499264E0,8.814560175E-1,7.159026146E0
8.470583950E-1,5.927320957E0,9.867402315E-1,7.199704170E0
8.494806340E-1,5.924928188E0,1.056132078E0,7.226324558E0
8.519020930E-1,5.917749405E0,1.113559842E0,7.132705212E0
8.543235510E-1,5.953641891E0,1.218844056E0,6.986742973E0
8.567458430E-1,5.944070339E0,1.371984720E0,6.713961124E0
8.591680820E-1,6.013462543E0,1.551745534E0,6.282954216E0
8.615895410E-1,6.111567974E0,1.735992789E0,5.758626938E0
8.640109990E-1,6.283851147E0,1.869990945E0,5.145765305E0
8.664332910E-1,6.506682873E0,1.901097536E0,4.449154377E0
8.688555300E-1,6.669394970E0,1.819741607E0,3.920041800E0
8.712769880E-1,6.621538639E0,1.802991867E0,3.749852180E0
8.736984470E-1,6.350850582E0,2.174178362E0,3.862613916E0
