"Time (s)","X (rad/s)","Y (rad/s)","Z (rad/s)"
1.757004164E-2,-2.860575020E-1,-1.063063979E0,-7.660187781E-2
2.763204166E-2,-3.583606482E-1,-1.073456407E0,-5.659571383E-3
3.769504168E-2,-4.361926019E-1,-1.063762188E0,6.611395627E-2
4.775804165E-2,-5.450432897E-1,-1.000465393E0,2.662958801E-1
5.782104167E-2,-6.164823174E-1,-8.189625144E-1,4.296571016E-1
6.788404164E-2,-6.020817757E-1,-6.468018889E-1,4.698272049E-1
7.794704166E-2,-6.022285223E-1,-4.442309439E-1,5.158200264E-1
8.801004168E-2,-6.313368678E-1,-2.574254274E-1,5.751550198E-1
9.807304165E-2,-6.096531153E-1,-1.439563781E-1,6.407060623E-1
1.081360417E-1,-5.231812596E-1,-8.428023010E-2,7.022519112E-1
1.181990416E-1,-3.984635472E-1,-3.562161699E-2,7.580749989E-1
1.282610417E-1,-2.613509893E-1,-1.873497665E-2,7.990837693E-1
1.383240417E-1,-1.410956681E-1,-3.601063415E-2,8.313548565E-1
1.483870416E-1,-6.038353965E-2,-1.382418163E-2,8.695797920E-1
1.584500417E-1,-2.289262414E-2,6.815617532E-2,9.059053063E-1
1.685130417E-1,1.944482513E-2,1.290723681E-1,9.586645961E-1
1.785760417E-1,4.566337913E-2,-5.704397336E-2,1.002885103E0
1.886390417E-1,4.295359552E-2,-2.752338350E-1,9.632639289E-1
1.987020416E-1,2.730885334E-2,-4.468007982E-1,7.842907310E-1
2.087650417E-1,2.330876887E-2,-8.710236102E-2,5.800330043E-1
2.188280417E-1,8.704193681E-2,6.118311882E-1,4.955543280E-1
2.288900416E-1,2.260880023E-1,7.303253412E-1,5.441579819E-1
2.389530417E-1,4.047016799E-1,4.881010354E-1,6.973305345E-1
2.490160417E-1,5.545570254E-1,2.462020665E-1,7.625099421E-1
2.590790417E-1,6.456363201E-1,1.708223522E-1,7.119336128E-1
2.691420417E-1,7.048856616E-1,2.568949163E-1,5.751577020E-1
2.792050416E-1,8.110464215E-1,5.994621515E-1,4.858137667E-1
2.892680417E-1,1.013581038E0,1.098511219E0,4.434853792E-1
2.993310417E-1,1.327258468E0,1.604102492E0,4.784028828E-1
3.093940417E-1,1.738710284E0,1.998073220E0,5.929816365E-1
3.194570417E-1,2.159027576E0,2.154325724E0,7.552933097E-1
3.295190416E-1,2.519900799E0,2.039099216E0,9.364669323E-1
3.395820417E-1,2.810355902E0,1.713104248E0,1.091375589E0
3.496450417E-1,3.044621706E0,1.676944375E0,1.163498163E0
3.597080417E-1,3.213806391E0,1.809295297E0,1.158636808E0
3.697710417E-1,3.339319229E0,2.025309086E0,1.114233851E0
3.798340416E-1,3.410584211E0,2.660035610E0,9.726050496E-1
3.898970417E-1,3.403439999E0,3.218032837E0,6.106486917E-1
3.999600417E-1,1.259222507E0,5.448127985E-1,-1.105332494E0
4.100230417E-1,6.656157374E-1,1.575259686E0,-1.373124838E0
4.200860417E-1,4.804463983E-1,2.039031744E0,-1.457694888E0
4.301480417E-1,1.427985132E-1,1.813992858E0,-1.326551676E0
4.402110417E-1,-4.798775613E-1,1.106136084E0,-9.146349430E-1
4.502740417E-1,-1.006230712E0,4.034522176E-1,-7.277418971E-1
4.603370416E-1,-1.333570004E0,3.625492454E-1,-7.351734638E-1
4.704000417E-1,-1.612390637E0,5.571717620E-1,-8.305712938E-1
4.804590833E-1,-1.807473540E0,8.082652092E-1,-8.711498976E-1
4.905220833E-1,-1.804244876E0,1.001928091E0,-9.288544059E-1
5.005850833E-1,-1.523634315E0,6.915884018E-1,-1.015356302E0
5.106480833E-1,-1.145428658E0,2.848022580E-1,-9.142404199E-1
5.207110833E-1,-8.476585150E-1,1.070908532E-1,-6.937927008E-1
5.307730833E-1,-7.384934425E-1,1.890632883E-2,-4.917824268E-1
5.408360834E-1,-7.047395110E-1,1.072013080E-1,-3.092166185E-1
5.508990833E-1,-6.302461624E-1,1.517043859E-1,-2.045704275E-1
5.609620833E-1,-5.328980684E-1,4.235206544E-2,-2.045704275E-1
5.710250833E-1,-4.606286585E-1,-2.324348241E-1,-2.298763394E-1
5.810880833E-1,-4.246472418E-1,-5.439604521E-1,-1.691227108E-1
5.911510834E-1,-3.349210620E-1,-8.872250915E-1,-8.548565954E-2
6.012140833E-1,-3.009124994E-1,-1.153790712E0,-4.734333977E-2
6.112770833E-1,-3.229940236E-1,-1.229343295E0,-4.883805662E-2
6.213400833E-1,-3.838733733E-1,-1.163694024E0,-5.071265623E-2
6.314020833E-1,-4.365027845E-1,-8.483999968E-1,-3.374707326E-2
6.414650833E-1,-5.292590857E-1,-5.031922460E-1,-4.504819587E-2
6.515280833E-1,-6.087149978E-1,-2.320411056E-1,-1.308938414E-1
6.615910833E-1,-5.957326293E-1,-5.008940771E-2,-2.385308146E-1
6.716540834E-1,-5.093982220E-1,2.234846726E-2,-3.504580557E-1
6.817170833E-1,-4.471750557E-1,4.355335608E-2,-4.389508963E-1
6.917800833E-1,-4.749888182E-1,2.613387629E-2,-4.858538806E-1
7.018430833E-1,-5.887585282E-1,-6.683521718E-2,-5.159668326E-1
7.119050833E-1,-7.112243772E-1,-2.182078063E-1,-5.870576501E-1
7.219680834E-1,-7.711068988E-1,-4.390594959E-1,-6.910064220E-1
7.320310833E-1,-7.251467705E-1,-7.532954812E-1,-7.288560271E-1
7.420940833E-1,-5.965477824E-1,-1.231548548E0,-6.657133102E-1
7.521570833E-1,-4.251832366E-1,-1.804767847E0,-5.620191097E-1
7.622200833E-1,-1.024390221E0,-1.170532823E0,-4.832239151E-1
7.722830834E-1,-6.925439239E-1,-1.306270719E0,-2.207237929E-1
7.823460833E-1,-4.116797447E-1,-5.135525465E-1,-5.353612453E-2
7.924090833E-1,-1.305334717E-1,-7.997701317E-2,4.636222124E-2
8.024710834E-1,1.847688258E-1,-4.417481273E-2,1.819277853E-1
8.125340833E-1,4.264756441E-1,-2.561288774E-1,3.575240076E-1
8.225970833E-1,5.913493037E-1,-4.000926912E-1,5.717329383E-1
8.326600833E-1,6.902630925E-1,-5.105543733E-1,7.423300743E-1
8.427230833E-1,7.457183599E-1,-6.905401349E-1,7.452907562E-1
8.527860834E-1,7.899522781E-1,-8.121374249E-1,5.640772581E-1
8.628490833E-1,8.788552284E-1,-7.598316073E-1,2.558586895E-1
8.729120833E-1,1.092889667E0,-4.273827076E-1,-1.448652744E-1
8.829750833E-1,1.298381805E0,-4.206694067E-1,-4.414969385E-1
8.930370833E-1,1.458208680E0,-7.400754690E-1,-5.557866693E-1
9.031000833E-1,1.509083629E0,-1.139899611E0,-5.758786201E-1
9.131630833E-1,1.435682416E0,-1.496950746E0,-5.845929980E-1
9.232260833E-1,1.225823998E0,-1.720140457E0,-5.736711025E-1
9.332890833E-1,7.352869511E-1,-1.526680708E0,-4.618419409E-1
9.433520833E-1,1.321063042E-1,-2.199562550E0,-2.713223398E-1
9.534150833E-1,-5.808004737E-1,-2.908652067E0,-8.012726158E-2
9.634780833E-1,-1.093101263E0,-3.453421831E0,1.224394217E-1
9.735400833E-1,-1.334537983E0,-3.784602880E0,3.438204229E-1
9.836030834E-1,-1.363089919E0,-4.054428577E0,5.166007280E-1
9.936660833E-1,-1.124237537E0,-4.185820580E0,7.322242260E-1
1.003729083E0,-6.722970009E-1,-4.138676167E0,8.764796853E-1
1.013792083E0,-1.537953317E-1,-3.884408474E0,7.600232363E-1
1.023855083E0,2.302727103E-1,-3.630184889E0,2.714810073E-1
1.033918083E0,3.867843151E-1,-3.324387550E0,-1.997525841E-1
1.043981083E0,2.389482260E-1,-3.019458294E0,-2.481432855E-1
1.054044083E0,8.844018728E-2,-2.980930567E0,1.030848399E-1
1.064106083E0,-2.585062757E-3,-2.920417309E0,6.164802313E-1
1.074169083E0,-7.619693130E-2,-2.853898764E0,1.114435434E0
1.084232083E0,-1.105234772E-1,-2.878373861E0,1.578611016E0
1.094295083E0,-1.504278183E-1,-2.891180515E0,1.918763638E0
1.104358083E0,-2.913750708E-1,-2.823770523E0,2.139579773E0
1.114421083E0,-5.263213515E-1,-2.754391432E0,2.330280304E0
1.124484083E0,-7.759138942E-1,-2.729566097E0,2.542436600E0
1.134547083E0,-9.662539959E-1,-2.801499844E0,2.779776573E0
1.144609083E0,-1.072392344E0,-2.982457638E0,3.096395493E0
1.154672083E0,-1.120300889E0,-3.269156933E0,3.480181694E0
1.164735083E0,-1.120722532E0,-3.679471970E0,3.864389420E0
1.174798083E0,-1.121822953E0,-4.169714451E0,4.167607307E0
1.184861083E0,-1.185361743E0,-4.510931015E0,4.370224476E0
1.194924083E0,-1.319916248E0,-4.571945190E0,4.523042679E0
1.204987083E0,-1.511699080E0,-4.378724098E0,4.671381950E0
1.215050083E0,-1.674594283E0,-4.052519798E0,4.839473248E0
1.225112083E0,-1.716350794E0,-3.709890366E0,5.014449596E0
1.235175083E0,-1.512954712E0,-3.545294285E0,5.215538025E0
1.245238083E0,-1.035286069E0,-3.699860811E0,5.356013775E0
1.255301083E0,-4.089837968E-1,-4.029087067E0,5.419733524E0
1.265364083E0,1.620072573E-1,-4.183436394E0,5.398907185E0
1.275427083E0,5.588322282E-1,-4.026328087E0,5.324880123E0
1.285490083E0,7.808600068E-1,-3.548084021E0,5.210853577E0
1.295553083E0,8.408220410E-1,-2.822306871E0,5.032933712E0
1.305615083E0,7.802362442E-1,-2.042872429E0,4.749225616E0
1.315678083E0,7.208964229E-1,-1.414224625E0,4.367971420E0
1.325741083E0,7.649645805E-1,-1.044908643E0,3.948253393E0
1.335804083E0,8.874560595E-1,-8.307260275E-1,3.479475737E0
1.345867083E0,9.743320942E-1,-5.550209880E-1,2.959313869E0
1.355930083E0,9.153462052E-1,-1.431592703E-1,2.430788517E0
1.365993083E0,7.325793505E-1,3.724351227E-1,1.955127001E0
1.376056083E0,4.861631691E-1,8.708623648E-1,1.538666129E0
1.386118083E0,2.570357323E-1,1.249436259E0,1.191978216E0
1.396181083E0,1.316780895E-1,1.463467956E0,9.286765456E-1
1.406244083E0,1.102159396E-1,1.485564828E0,7.375321388E-1
1.416307083E0,1.861954182E-1,1.354844332E0,6.118521690E-1
1.426370083E0,3.334120214E-1,1.215544224E0,5.472981930E-1
1.436433083E0,4.599032700E-1,1.015790343E0,4.903070033E-1
1.446496083E0,5.533714294E-1,8.511068821E-1,4.693799019E-1
1.456558083E0,6.014637351E-1,7.608143687E-1,4.783342779E-1
1.466621083E0,5.147752166E-1,5.637012720E-1,4.822871983E-1
1.476687458E0,-1.983289421E-1,-4.817606881E-3,4.313082695E-1
1.486750458E0,-7.937028408E-1,-1.426194161E-1,3.950908780E-1
1.496813458E0,-1.230903268E0,-2.162685245E-1,4.635188878E-1
1.506876458E0,-1.137967467E0,-9.824068844E-2,4.344869852E-1
1.516939458E0,-6.892148852E-1,-1.533865333E-1,3.481376767E-1
1.527001458E0,-1.790739149E-1,-4.699221253E-1,2.618307769E-1
1.537064458E0,2.782955766E-1,-7.394993305E-1,2.067407221E-1
1.547127458E0,6.298232675E-1,-7.939492464E-1,2.124811560E-1
1.557190458E0,7.634426355E-1,-6.582714319E-1,2.215439230E-1
1.567253458E0,6.362609267E-1,-4.431545436E-1,1.926350445E-1
1.577316458E0,4.485872984E-1,-1.880733222E-1,1.177139059E-1
1.587379458E0,2.189407945E-1,-8.129121363E-2,2.417251095E-2
1.597441458E0,1.589250714E-1,2.639499865E-2,-5.644718930E-2
1.607504458E0,2.018283308E-1,-3.961251304E-2,-8.400238305E-2
1.617567458E0,3.348235786E-1,-1.170416921E-1,-1.293348521E-1
1.627630458E0,4.893023670E-1,-2.044495791E-1,-1.648201346E-1
1.637693458E0,6.116324663E-1,-1.925469488E-1,-2.131978571E-1
1.647756458E0,1.039005995E0,1.704437733E-1,-3.147295415E-1
1.657819458E0,1.071374893E0,7.700181752E-2,-3.095910847E-1
1.667881458E0,5.268388391E-1,-1.525179297E-1,-3.024002910E-1
1.677944458E0,4.383585453E-1,1.162601262E-1,-3.466434181E-1
1.688007458E0,3.043445647E-1,1.264206171E-1,-2.860322893E-1
1.698070458E0,-2.071663737E-1,-2.615876198E-1,-1.501713693E-1
1.708133458E0,-6.328111291E-1,-4.799737632E-1,-1.128140185E-2
1.718196458E0,-5.485991240E-1,-5.898784399E-1,1.066319719E-1
1.728259458E0,-2.260027230E-1,-9.400018454E-1,1.759162396E-1
1.738321458E0,1.215485930E-1,-1.352618814E0,1.912381053E-1
1.748384458E0,2.986887395E-1,-1.687652349E0,8.590608090E-2
1.758447458E0,2.618286312E-1,-1.781883717E0,-4.440132156E-2
1.768510458E0,3.131739795E-2,-1.725939035E0,-1.397699118E-1
1.778573458E0,-3.484739661E-1,-1.667269826E0,-2.032325715E-1
1.788636458E0,-6.996980309E-1,-1.520547748E0,-1.893343329E-1
1.798699458E0,-8.955323696E-1,-1.381660461E0,-1.383367032E-1
1.808761458E0,-9.255717397E-1,-1.341765523E0,-6.673789769E-2
1.818824458E0,-8.122526407E-1,-1.298282027E0,3.522527218E-2
1.828887458E0,-7.466651201E-1,-1.246878505E0,1.073436737E-1
1.838950458E0,-8.607835174E-1,-1.173326731E0,1.241238341E-1
1.849013458E0,-1.010687590E0,-1.007547021E0,8.478175104E-2
1.859076458E0,-1.003387094E0,-8.573017716E-1,7.879096270E-2
1.869139458E0,-8.582257628E-1,-7.976690531E-1,1.258290410E-1
1.879201458E0,-7.013606429E-1,-7.681847215E-1,2.136300057E-1
1.889264458E0,-6.328271031E-1,-6.876518130E-1,3.331617117E-1
1.899327458E0,-6.608261466E-1,-5.519050956E-1,4.854016006E-1
1.909390458E0,-6.480653286E-1,-4.611102045E-1,5.781123638E-1
1.919453458E0,-5.912720561E-1,-4.220996797E-1,6.376323104E-1
1.929516458E0,-5.788843632E-1,-4.030711353E-1,6.228137016E-1
1.939579458E0,-6.438254714E-1,-4.480854571E-1,6.011702418E-1
1.949641458E0,-7.483833432E-1,-5.045279860E-1,5.692629218E-1
1.959704458E0,-8.138637543E-1,-5.500841737E-1,5.491229296E-1
1.969767458E0,-8.571193218E-1,-4.996119142E-1,5.402197242E-1
1.979830458E0,-8.423445821E-1,-2.978255451E-1,5.568432808E-1
1.989893458E0,-9.369640350E-1,-3.808692470E-2,6.037654877E-1
1.999956458E0,-1.186606169E0,-2.882666588E-1,5.590017438E-1
2.010018458E0,-1.167838573E0,-3.339665234E-1,5.898145437E-1
2.020081458E0,-1.051295161E0,-1.961456537E-1,4.373261631E-1
2.030144458E0,-1.006282210E0,5.220316350E-2,4.070345759E-1
2.040207458E0,-1.103679776E0,3.537076116E-1,3.516256511E-1
2.050270458E0,-1.122402430E0,4.934394062E-1,2.921969295E-1
2.060333458E0,-1.042557001E0,5.420045257E-1,3.036109209E-1
2.070396458E0,-9.956397414E-1,5.050837994E-1,3.078389466E-1
2.080458458E0,-9.450840950E-1,3.077099025E-1,2.931279242E-1
2.090521458E0,-7.621272802E-1,2.691044658E-2,2.500725985E-1
2.100584458E0,-5.868617296E-1,-5.461629853E-2,2.606371939E-1
2.110647458E0,-6.137234569E-1,-1.403132267E-2,3.333444297E-1
2.120710458E0,-6.474946141E-1,-3.219818324E-2,3.471972346E-1
2.130773458E0,-5.798790455E-1,-6.367594749E-2,3.852428794E-1
2.140835458E0,-4.613134861E-1,-2.463441491E-1,4.460837543E-1
2.150898458E0,-3.415290117E-1,-4.195731878E-1,5.082387328E-1
2.160961458E0,-2.260480076E-1,-4.680610895E-1,5.582244396E-1
2.171024458E0,-2.112094015E-1,-3.180039525E-1,5.644309521E-1
2.181087458E0,-2.867514789E-1,-1.769263148E-1,5.542543530E-1
2.191150458E0,-3.289000094E-1,9.011065587E-3,5.939636827E-1
2.201212458E0,-3.599039018E-1,5.621874332E-2,6.395335793E-1
2.211275458E0,-3.297260106E-1,7.137559354E-2,6.986642480E-1
2.221338458E0,-2.484480590E-1,6.984458864E-2,7.510369420E-1
2.231401458E0,-1.784039885E-1,9.329718351E-2,8.433460593E-1
2.241464458E0,-2.137777209E-2,1.468642354E-1,8.998649120E-1
2.251527458E0,1.947044581E-1,9.566628933E-2,9.790742397E-1
2.261589458E0,4.494339228E-1,-1.009166166E-1,9.966375828E-1
2.271652458E0,5.265840888E-1,-1.198973894E0,1.337567687E0
2.281715458E0,4.910078347E-1,-1.925368428E0,1.117759228E0
2.291778458E0,8.644900918E-1,-1.485527635E0,8.211169243E-1
2.301841458E0,6.989393234E-1,-9.039066434E-1,8.235257268E-1
2.311904458E0,2.869126201E-1,-7.504592538E-1,6.757852435E-1
2.321967458E0,-1.161545068E-1,-8.145159483E-1,4.734412730E-1
2.332029458E0,-3.690661192E-1,-1.147623777E0,4.030014575E-1
2.342092458E0,-6.296521425E-1,-1.186964631E0,3.337537944E-1
2.352155458E0,-9.535980225E-1,-7.794857621E-1,1.769292951E-1
2.362218458E0,-1.082256675E0,-5.374083519E-1,-4.202734679E-2
2.372281458E0,-8.668116927E-1,2.038066387E-1,-2.361675203E-1
2.382344458E0,-4.616986513E-1,-4.747375846E-2,-3.025410175E-1
2.392406458E0,7.813670672E-4,-3.765701652E-1,-3.286224008E-1
2.402469458E0,1.774825901E-1,-3.595877886E-1,-2.110223919E-1
2.412532458E0,2.220732272E-1,-1.074444875E-1,6.773254275E-2
2.422595458E0,2.336885333E-1,1.097774208E-1,3.963493109E-1
2.432658458E0,2.908359766E-1,1.748821139E-1,5.948964953E-1
2.442721458E0,4.108393192E-1,1.609958895E-2,6.015120745E-1
2.452783458E0,5.652251244E-1,-2.397574931E-1,4.776101410E-1
2.462846458E0,6.490564942E-1,-2.644871175E-1,3.817118406E-1
2.472909458E0,6.310846806E-1,-5.095139146E-2,6.917296052E-1
2.482969583E0,5.448994040E-1,3.396921977E-2,9.844260812E-1
2.493032583E0,4.907275140E-1,1.872235537E-2,1.160074353E0
2.503095583E0,5.540010929E-1,3.250599839E-3,1.186329484E0
2.513157583E0,6.112598777E-1,-9.338162839E-3,1.153716087E0
2.523220583E0,5.914125443E-1,1.299749464E-1,1.047521591E0
2.533283583E0,4.734424651E-1,2.120229453E-1,1.007271886E0
2.543346583E0,3.749867380E-1,1.840687990E-1,8.496977687E-1
2.553409583E0,2.540973425E-1,-1.919178292E-3,7.352130413E-1
2.563471583E0,1.452720016E-1,-6.466545165E-2,7.393054962E-1
2.573534583E0,-6.875267625E-2,-1.138585657E-1,4.672822058E-1
2.583597583E0,-1.137745976E-1,5.481784418E-2,2.134256214E-1
2.593660583E0,-2.358589619E-1,-1.406781524E-1,2.522695251E-2
2.603723583E0,-4.600205421E-1,-4.301315844E-1,-2.286916226E-1
2.613786583E0,-7.198708057E-1,-4.565458596E-1,-4.451389611E-1
2.623848583E0,-9.377107620E-1,-2.739804983E-1,-5.702217817E-1
2.633911583E0,-1.039253354E0,-8.011407405E-2,-6.717761159E-1
2.643974583E0,-1.010328770E0,-5.810083449E-2,-6.937526464E-1
2.654037583E0,-9.054087400E-1,-6.942086667E-2,-4.801772237E-1
2.664100583E0,-8.765102029E-1,-3.958896101E-1,-2.589029074E-1
2.674163583E0,-8.919131160E-1,-9.247430563E-1,-1.284487695E-1
2.684225583E0,-1.477634907E0,-1.371712446E0,3.395649791E-1
2.694288583E0,-2.273154259E0,-1.751116753E0,1.228749394E0
2.704351583E0,-1.410449862E0,4.277101755E-1,1.443085670E0
2.714414583E0,-1.623575538E-1,1.530956626E0,9.708214402E-1
2.724477583E0,2.226861715E-1,6.576507688E-1,7.077481151E-1
2.734540583E0,3.111680746E-1,-3.905057907E-1,3.882699609E-1
2.744602583E0,2.924629152E-1,-6.140937209E-1,1.816523373E-1
2.754665583E0,1.900414675E-1,-3.673870265E-1,6.676530000E-3
2.764728583E0,1.474595964E-1,-2.625304461E-1,-5.877367780E-2
2.774791583E0,1.202285066E-1,-1.978896707E-1,-8.349953592E-2
2.784854583E0,6.303144246E-2,-1.358880401E-1,-9.670727700E-2
2.794916583E0,1.482396573E-2,-7.881277800E-2,-1.026197672E-1
2.804979583E0,-1.658735052E-2,-8.164712042E-2,-1.074882075E-1
2.815042583E0,-3.903167322E-2,-5.064979196E-2,-1.182306036E-1
2.825105583E0,-8.511193842E-2,-1.761084422E-4,-1.106770635E-1
2.835168583E0,-1.745321006E-1,-2.648254670E-2,-1.003181785E-1
2.845231583E0,-1.051319003E0,5.000900477E-3,-8.157029003E-2
2.855293583E0,-4.710274637E-1,3.053908050E-1,-5.055325478E-2
2.865356583E0,-2.489648312E-1,1.212399974E-1,1.960802078E-2
2.875419583E0,-2.184782922E-1,1.212565079E-1,2.468001097E-2
2.885482583E0,-1.352464110E-1,1.124083251E-2,3.461201862E-2
2.895545583E0,-1.709313691E-2,-1.483102143E-1,3.493079916E-2
2.905607583E0,8.621037006E-2,-2.448042780E-1,3.737875260E-3
2.915670583E0,1.734262407E-1,-3.706378341E-1,-5.642080307E-2
2.925733583E0,2.387010008E-1,-5.178359747E-1,-9.603057057E-2
2.935796583E0,2.708941102E-1,-6.029309034E-1,-1.055891886E-1
2.945859583E0,3.516500890E-1,-8.326228857E-1,-9.711621702E-2
2.955922583E0,4.190674722E-1,-9.368517995E-1,-7.144680619E-2
2.965984583E0,4.043033719E-1,-8.803620338E-1,-6.079371274E-2
2.976047583E0,3.313785791E-1,-8.595705032E-1,-9.513730556E-2
2.986110583E0,2.617235780E-1,-8.858705759E-1,-1.229321361E-1
2.996173583E0,1.813341826E-1,-8.711542487E-1,-9.121707827E-2
3.006236583E0,9.555824101E-2,-6.440756917E-1,-1.633379050E-2
3.016298583E0,2.932835557E-2,-2.356855571E-1,2.096793652E-1
3.026361583E0,9.676882625E-2,-2.364460379E-1,5.413242579E-1
3.036424583E0,1.156908572E-1,-2.710644603E-1,7.451905608E-1
3.046487583E0,-6.522842217E-3,-2.566123307E-1,9.115997553E-1
3.056550583E0,-1.534454376E-1,-2.758701742E-1,1.124085426E0
3.066613583E0,-2.564024031E-1,-1.412548721E-1,1.303061604E0
3.076675583E0,-3.172204792E-1,-1.455710735E-2,1.514371395E0
3.086738583E0,-3.186019361E-1,1.474325210E-1,1.723226309E0
3.096801583E0,-2.925093472E-1,1.269040853E-1,2.035669804E0
3.106864583E0,-2.407291085E-1,6.843212247E-2,2.250556231E0
3.116927583E0,4.206617363E-3,-3.396321833E-2,1.958881617E0
3.126989583E0,2.771077454E-1,1.193308309E-1,1.671021700E0
3.137052583E0,4.163617790E-1,1.209178045E-1,1.634044170E0
3.147115583E0,5.370593667E-1,-1.564002931E-1,1.687577724E0
3.157178583E0,6.058973074E-1,-4.709683657E-1,1.801959991E0
3.167241583E0,6.477584243E-1,-6.653413773E-1,1.938793778E0
3.177303583E0,6.212083101E-1,-8.271321058E-1,2.135886192E0
3.187366583E0,4.553762078E-1,-9.963127375E-1,2.273316622E0
3.197429583E0,2.981796563E-1,-1.033174396E0,2.332881212E0
3.207492583E0,1.045278981E-1,-8.936708570E-1,2.375533104E0
3.217555583E0,-1.715423018E-1,-7.760429978E-1,2.356170177E0
3.227618583E0,-5.657256246E-1,-5.072536469E-1,2.129818916E0
3.237680583E0,-1.026216030E0,3.257259354E-2,1.625845909E0
3.247743583E0,-1.353279591E0,5.995476842E-1,7.494401336E-1
3.257806583E0,-1.416653037E0,7.903181911E-1,5.906597525E-2
3.267869583E0,-1.388370872E0,5.903576016E-1,-3.034941852E-1
3.277932583E0,-1.235324144E0,2.241095752E-1,-5.589715242E-1
3.287994583E0,-7.290109396E-1,6.064200308E-3,-6.424764395E-1
3.298057583E0,-2.114311755E-1,1.068256944E-1,-6.200821996E-1
3.308120583E0,-1.426548958E-1,2.205572873E-1,-5.332119465E-1
3.318183583E0,-4.579230845E-1,-3.482875228E-1,-3.590606749E-1
3.328246583E0,-4.281569719E-1,-1.853756756E-1,-1.455644965E-1
3.338308583E0,-1.271795332E-1,2.067502886E-1,-8.627905697E-2
