"Time (s)","X (rad/s)","Y (rad/s)","Z (rad/s)"
7.156208332E-3,-1.841326654E-1,-2.489140481E-1,-2.149000019E-1
1.721420832E-2,-2.136469334E-1,-3.327390850E-1,-1.684027612E-1
2.727220830E-2,-2.371850163E-1,-3.945555687E-1,-1.253357232E-1
3.732920834E-2,-2.546628416E-1,-4.460264444E-1,-1.310261488E-1
4.738720832E-2,-2.924986482E-1,-4.934088886E-1,-1.897022426E-1
5.744520831E-2,-3.663795888E-1,-5.559157729E-1,-2.742922604E-1
6.750320835E-2,-4.637612700E-1,-6.163679361E-1,-3.489451706E-1
7.756020833E-2,-5.578688383E-1,-6.140341759E-1,-3.748488724E-1
8.762299997E-2,-7.169847488E-1,-7.344236970E-1,-2.872119546E-1
9.768100001E-2,-9.231234789E-1,-8.900719881E-1,-1.758335084E-1
1.077390000E-1,-1.157225728E0,-1.047235489E0,-7.868619263E-2
1.177960000E-1,-1.423070312E0,-1.223679423E0,2.760502696E-2
1.278540000E-1,-1.718657494E0,-1.226236582E0,1.861581951E-1
1.379120000E-1,-1.993515134E0,-1.197745085E0,3.766946495E-1
1.479690000E-1,-2.241184711E0,-1.061735272E0,5.730713606E-1
1.580270000E-1,-2.420667887E0,-8.366476297E-1,6.880284548E-1
1.680850000E-1,-2.550637960E0,-6.058357358E-1,6.884769201E-1
1.781430000E-1,-2.619386196E0,-4.909569919E-1,6.272723079E-1
1.882000000E-1,-2.626233339E0,-5.547748208E-1,4.816620648E-1
1.982580000E-1,-2.547696829E0,-7.135362029E-1,2.156756371E-1
2.083160000E-1,-2.294713974E0,-8.874073625E-1,-1.208422035E-1
2.183740000E-1,-1.832467675E0,-7.149105668E-1,-4.021877646E-1
2.284310000E-1,-1.170241714E0,-4.694763124E-1,-6.225848198E-1
2.384890000E-1,-5.065342784E-1,-5.617185831E-1,-8.617905378E-1
2.485470000E-1,1.377456784E-1,-8.139015436E-1,-1.118841767E0
2.586040000E-1,8.604335189E-1,-1.005682230E0,-1.398413539E0
2.686620000E-1,1.579862714E0,-1.158143640E0,-1.616754889E0
2.787200000E-1,2.136701107E0,-1.224687219E0,-1.667138219E0
2.887780000E-1,2.447426319E0,-4.131373465E-1,-1.606637836E0
2.988350000E-1,2.466505289E0,-9.407604933E-1,-1.403682709E0
3.088930000E-1,2.233963966E0,-1.172990561E0,-1.093818069E0
3.189510000E-1,1.713266969E0,-1.381362319E0,-8.930380344E-1
3.290090000E-1,8.374004364E-1,-1.430817008E0,-8.756055236E-1
3.390660000E-1,-4.452340677E-2,-1.153010249E0,-8.664833903E-1
3.491240000E-1,-7.355042696E-1,-8.719986081E-1,-8.659901619E-1
3.591820000E-1,-1.176069617E0,-7.002017498E-1,-7.515098453E-1
3.692390000E-1,-1.286914945E0,-9.408167601E-1,-5.192020535E-1
3.792970000E-1,-1.128430128E0,-8.350609541E-1,-1.622565389E-1
3.893550000E-1,-8.654816151E-1,-3.952606618E-1,1.229152754E-1
3.994130000E-1,-6.555414200E-1,-3.983169198E-1,1.246697679E-1
4.094700000E-1,-4.815664589E-1,-9.286947846E-1,-1.050694212E-1
4.195280000E-1,-2.922414541E-1,-1.495425344E0,-3.342984915E-1
4.295860000E-1,-5.550961941E-2,-1.987485886E0,-5.603356361E-1
4.396440000E-1,2.420168817E-1,-2.446639776E0,-9.060310125E-1
4.497010000E-1,5.318806767E-1,-2.433511257E0,-1.238633752E0
4.597590000E-1,7.784376144E-1,-1.990256786E0,-1.441855788E0
4.698170000E-1,8.176004887E-1,-1.380768657E0,-1.031264782E0
4.798750000E-1,3.932884037E-1,-1.038462043E0,-7.059389949E-1
4.899320000E-1,-1.574690491E-1,-7.734674215E-1,-4.220997691E-1
4.999900000E-1,-3.521318436E-1,-3.885608017E-1,-1.769608259E-1
5.100480000E-1,-3.341176808E-1,-8.080535382E-2,-1.365923882E-1
5.201050000E-1,-2.060476542E-1,5.399674177E-2,-1.067175642E-1
5.301630000E-1,-3.700935096E-2,3.130074963E-2,-1.642655209E-2
5.402210000E-1,1.228749156E-1,-1.847922355E-1,1.265673786E-1
5.502790000E-1,2.351199538E-1,-4.977293909E-1,2.639942169E-1
5.603360000E-1,2.917054594E-1,-7.681398392E-1,3.577030599E-1
5.703940000E-1,2.951646447E-1,-6.646472812E-1,4.789719582E-1
5.804520000E-1,2.719843388E-1,-8.247030526E-2,6.395572424E-1
5.905100000E-1,3.461850584E-1,4.276374280E-1,8.419777155E-1
6.005670000E-1,3.497984409E-1,8.306781054E-1,1.063647747E0
6.106250000E-1,3.389737606E-1,1.247321129E0,1.253303170E0
6.206830000E-1,3.152093887E-1,1.699382186E0,1.417277217E0
6.307410000E-1,3.611736894E-1,2.067027807E0,1.607978463E0
6.407980000E-1,5.250219703E-1,2.341419458E0,1.870067477E0
6.508560000E-1,7.471525073E-1,2.749824047E0,2.184342146E0
6.609140000E-1,9.100453258E-1,3.161448956E0,2.522801161E0
6.709710000E-1,9.838386178E-1,3.426316500E0,2.856330633E0
6.810290000E-1,8.628988862E-1,3.638214111E0,3.146730185E0
6.910870000E-1,6.380700469E-1,3.772172928E0,3.409024239E0
7.011450000E-1,3.236848712E-1,3.758691788E0,3.729975939E0
7.112020000E-1,-7.007547468E-2,3.513060570E0,4.139997005E0
7.212600000E-1,-4.331792891E-1,3.095727444E0,4.614552975E0
7.313180000E-1,-6.431011558E-1,2.631144762E0,4.972411156E0
7.413760000E-1,-6.455125213E-1,2.043421268E0,5.116073608E0
7.514330000E-1,-5.166568160E-1,1.298914075E0,5.103701115E0
7.614910000E-1,-3.928911686E-1,6.233454347E-1,4.989954948E0
7.715490000E-1,-4.194676578E-1,3.507237881E-2,4.833577633E0
7.816060000E-1,-6.665286422E-1,-4.668820202E-1,4.482634544E0
7.916640000E-1,-1.145663738E0,-8.168392181E-1,4.008995056E0
8.017220000E-1,-1.758665323E0,-1.212330341E0,3.370486021E0
8.117800000E-1,-2.258329153E0,-1.347786427E0,2.712052584E0
8.218370000E-1,-2.675770044E0,-1.044419765E0,2.274783373E0
8.318950000E-1,-2.843872786E0,-7.425597906E-1,2.064294338E0
8.419530000E-1,-2.825469732E0,-5.971698761E-1,1.678078413E0
8.520110000E-1,-2.821842432E0,-8.705026507E-1,1.338977575E0
8.620680000E-1,-2.835321903E0,-1.137645006E0,1.026806951E0
8.721260000E-1,-2.827012300E0,-1.222766042E0,8.200856447E-1
8.821840000E-1,-2.786311150E0,-1.189457417E0,6.305341125E-1
8.922420000E-1,-2.783262968E0,-1.439431071E0,3.908624053E-1
9.022990000E-1,-2.769831896E0,-1.990421414E0,1.941312104E-1
9.123570000E-1,-2.719008446E0,-2.372305870E0,-1.314555109E-2
9.224150000E-1,-2.759980202E0,-2.505186558E0,8.577409387E-2
9.324720000E-1,-2.905316353E0,-2.501130581E0,4.325008988E-1
9.425300000E-1,-2.912285566E0,-2.566598177E0,7.349199057E-1
9.525880000E-1,-2.995025873E0,-2.368307114E0,8.975163102E-1
9.626460000E-1,-3.081849813E0,-2.101945400E0,1.083280563E0
9.727030000E-1,-2.936862946E0,-1.886564970E0,1.252268791E0
9.827610000E-1,-3.023402929E0,-1.435401917E0,1.179996490E0
9.928190000E-1,-3.304938555E0,-9.679859281E-1,1.104894757E0
1.002877000E0,-3.485814571E0,-7.513760924E-1,1.064864635E0
1.012934000E0,-3.745758772E0,-6.494452357E-1,8.677753806E-1
1.022992000E0,-4.060887337E0,-4.668813348E-1,5.656456947E-1
1.033050000E0,-4.244188786E0,-3.187733591E-1,3.149231374E-1
1.043107000E0,-4.198375225E0,-2.898634970E-1,-7.781597320E-3
1.053165000E0,-4.094932556E0,-2.777682245E-1,-3.215978444E-1
1.063223000E0,-3.779299498E0,-4.175235927E-1,-5.436110497E-1
1.073281000E0,-3.356102705E0,-4.917434752E-1,-6.376467347E-1
1.083332958E0,-3.020701170E0,-5.497722626E-1,-5.419763327E-1
1.093390958E0,-2.792092800E0,-6.376960278E-1,-3.691270351E-1
1.103448958E0,-2.600309610E0,-8.522652984E-1,-2.086447477E-1
1.113506958E0,-2.489895344E0,-1.124815702E0,-9.001475573E-2
1.123563958E0,-2.451621056E0,-1.454200387E0,-3.069198318E-2
1.133621958E0,-2.464889765E0,-1.788705826E0,5.655639339E-3
1.143679958E0,-2.508300781E0,-2.138068199E0,3.665321320E-2
1.153736958E0,-2.527009249E0,-2.239287138E0,-5.524475500E-2
1.163794958E0,-2.414501429E0,-2.266771317E0,-5.375546217E-2
1.173852958E0,-2.263926983E0,-2.092430830E0,3.720507026E-2
1.183910958E0,-2.031009674E0,-1.911853075E0,6.258759648E-2
1.193967958E0,-1.757304192E0,-1.720623732E0,1.229492128E-1
1.204025958E0,-1.548040032E0,-1.384321213E0,1.465010792E-1
1.214083958E0,-1.459770322E0,-9.502440691E-1,1.657309681E-1
1.224141958E0,-1.330766439E0,-3.270768821E-1,1.091324165E-1
1.234198958E0,-1.107857227E0,1.794995070E-1,-3.337359428E-2
1.244256958E0,-8.383570910E-1,3.860977292E-1,-1.674336195E-1
1.254314958E0,-5.957167149E-1,3.822598457E-1,-2.518688738E-1
1.264371958E0,-3.952003419E-1,2.733644247E-1,-3.107380867E-1
1.274429958E0,-2.600843310E-1,1.779683977E-1,-3.109420836E-1
1.284487958E0,-2.403163910E-1,8.722499758E-2,-2.677573264E-1
1.294545958E0,-4.724508226E-1,-8.738488704E-2,-3.487285972E-1
1.304602958E0,-7.802004814E-1,-3.166843057E-1,-4.590606093E-1
1.314660958E0,-9.615742564E-1,-4.510586262E-1,-5.674512982E-1
1.324718958E0,-1.098036647E0,-6.614764333E-1,-6.649682522E-1
1.334776958E0,-1.122280717E0,-7.145332694E-1,-7.433298826E-1
1.344833958E0,-1.089280844E0,-5.822416544E-1,-7.026102543E-1
1.354891958E0,-1.021383524E0,-4.387926161E-1,-5.250765085E-1
1.364949958E0,-9.855290651E-1,-3.192324042E-1,-4.290084839E-1
1.375007958E0,-9.197692275E-1,-2.588020861E-1,-3.930360973E-1
1.385064958E0,-8.242373466E-1,-2.441463619E-1,-4.091905951E-1
1.395122958E0,-6.289525032E-1,-2.933879495E-1,-5.295255184E-1
1.405180958E0,-3.858745396E-1,-4.217548668E-1,-7.235152125E-1
1.415237958E0,-8.058600128E-2,-5.926927924E-1,-9.016623497E-1
1.425295958E0,1.660675257E-1,-8.102707863E-1,-9.718478322E-1
1.435353958E0,3.206791878E-1,-9.734541178E-1,-9.826482534E-1
1.445411958E0,3.716289997E-1,-9.995665550E-1,-9.070638418E-1
1.455468958E0,3.765092492E-1,-9.057260752E-1,-7.903689146E-1
1.465526958E0,3.527554572E-1,-8.482446671E-1,-7.006322145E-1
1.475584958E0,3.341266513E-1,-8.587843776E-1,-6.302909851E-1
1.485642958E0,3.915078938E-1,-9.675225019E-1,-5.456349254E-1
1.495699958E0,4.655908942E-1,-1.219346166E0,-4.449924827E-1
1.505757958E0,5.795879364E-1,-1.540261507E0,-3.266973197E-1
1.515815958E0,7.004421949E-1,-1.878287435E0,-2.666827142E-1
1.525872958E0,8.258438110E-1,-2.294598579E0,-1.704467237E-1
1.535930958E0,1.049131751E0,-2.530663967E0,-5.467751995E-2
1.545988958E0,1.448884606E0,-2.592769861E0,-8.593080193E-2
1.556046958E0,1.535096526E0,-2.960829735E0,-2.292008847E-1
1.566103958E0,1.528766990E0,-3.154841900E0,-2.241202891E-1
1.576161958E0,1.586762667E0,-3.105290413E0,-5.621944368E-2
1.586219958E0,1.587421536E0,-3.069055319E0,-3.076767921E-2
1.596277958E0,1.543011189E0,-3.100601435E0,-1.329108179E-1
1.606334958E0,1.565054893E0,-3.157971144E0,-1.898175180E-1
1.616392958E0,1.661964417E0,-3.085898399E0,-1.333286762E-1
1.626450958E0,1.684477448E0,-2.931875229E0,3.283550218E-2
1.636507958E0,1.589608669E0,-2.729246140E0,2.290825248E-1
1.646565958E0,1.565955520E0,-2.466963053E0,2.900143266E-1
1.656623958E0,1.645210028E0,-2.360072851E0,3.158406019E-1
1.666681958E0,1.589248657E0,-2.293899775E0,2.968831658E-1
1.676738958E0,1.533044577E0,-2.176357508E0,2.499867529E-1
1.686796958E0,1.381153941E0,-2.174254656E0,2.757939696E-1
1.696854958E0,1.279000163E0,-1.929202199E0,3.913725019E-1
1.706912958E0,6.372547746E-1,-2.008089542E0,1.819072813E-1
1.716969958E0,2.292438149E-1,-1.611811638E0,3.011988103E-1
1.727027958E0,3.679202199E-1,-9.667493105E-1,5.351687670E-1
1.737085958E0,4.130136371E-1,-7.650688887E-1,6.293650270E-1
1.747143958E0,2.722668350E-1,-9.012852311E-1,5.859642029E-1
1.757200958E0,2.133963406E-1,-9.324295521E-1,6.316520572E-1
1.767258958E0,2.419055104E-1,-7.342286706E-1,8.660320640E-1
1.777316958E0,1.481420100E-1,-6.273133755E-1,1.050231218E0
1.787373958E0,1.028305590E-1,-5.388897061E-1,1.250618696E0
1.797431958E0,1.661227196E-1,-6.136430502E-1,1.352785587E0
1.807489958E0,3.469801545E-1,-8.934380412E-1,1.320296884E0
1.817547958E0,4.200240076E-1,-1.252765656E0,1.345211267E0
1.827604958E0,2.987738252E-1,-1.337162375E0,1.396752238E0
1.837662958E0,5.000901222E-2,-1.284503937E0,1.415369511E0
1.847720958E0,-1.007161364E-1,-1.177137375E0,1.396469951E0
1.857778958E0,-4.374739528E-2,-1.014808416E0,1.230898261E0
1.867835958E0,1.509119570E-1,-8.528327346E-1,9.670701027E-1
1.877893958E0,8.910503983E-2,-6.557239294E-1,8.043003678E-1
1.887951958E0,-2.217167467E-1,-3.128127158E-1,7.753848433E-1
1.898009958E0,-5.054062605E-1,4.968134314E-2,7.509399652E-1
1.908066958E0,-6.405429244E-1,1.950039715E-1,5.564565659E-1
1.918124958E0,-5.185624361E-1,1.958138347E-1,3.330087960E-1
1.928182958E0,-3.698135614E-1,1.556744576E-1,1.735122502E-1
1.938239958E0,-1.703723669E-1,5.502481386E-2,2.142056078E-1
1.948297958E0,-8.430451900E-2,-1.281324029E-1,3.261206746E-1
1.958355958E0,-2.949938476E-1,-2.519564331E-2,3.530558646E-1
1.968413958E0,-3.421403766E-1,1.571026444E-1,2.893799841E-1
1.978470958E0,-2.895788848E-1,2.653878331E-1,2.327473462E-1
1.988528958E0,-3.172675073E-1,3.104341924E-1,2.137510628E-1
1.998586958E0,-3.256309032E-1,3.008723855E-1,1.345318705E-1
2.008644958E0,-3.481570482E-1,3.629579842E-1,5.397611484E-2
2.018701958E0,-3.794966042E-1,4.529962540E-1,-1.497392543E-2
2.028759958E0,-3.906472027E-1,6.144552827E-1,-2.058406919E-1
2.038817958E0,-3.093259931E-1,7.001169324E-1,-3.920382559E-1
2.048874958E0,-2.257701755E-1,7.596709132E-1,-5.027838349E-1
2.058932958E0,-7.947552949E-2,9.560846686E-1,-5.270481110E-1
2.068990958E0,1.576473862E-1,1.230531693E0,-7.187024355E-1
2.079048958E0,1.532630324E-1,1.289566994E0,-8.813201189E-1
2.089106750E0,4.182118177E-2,1.315649033E0,-9.627490640E-1
2.099164750E0,-1.920706360E-3,1.401318192E0,-1.043981314E0
2.109222750E0,-1.100174785E-1,1.164332867E0,-9.652215838E-1
2.119280750E0,-3.194423318E-1,8.436638713E-1,-5.921567082E-1
2.129337750E0,-5.123003721E-1,2.533780932E-1,-1.678413153E-1
2.139395750E0,-4.653027952E-1,-2.699402571E-1,1.930556297E-1
2.149453750E0,-3.005151749E-1,-6.463501453E-1,4.165579379E-1
2.159511750E0,-1.520732194E-1,-8.715487123E-1,5.573403835E-1
2.169568750E0,-1.477639228E-1,-8.501182795E-1,7.287152410E-1
2.179626750E0,-3.519636393E-1,-8.393197060E-1,9.731846452E-1
2.189684750E0,-5.042253137E-1,-1.068269968E0,1.233333707E0
2.199741750E0,-5.050447583E-1,-1.445936561E0,1.487826705E0
2.209799750E0,-4.258434176E-1,-1.651377797E0,1.585068583E0
2.219857750E0,-2.674609721E-1,-1.295870900E0,1.371640682E0
2.229915750E0,-1.172256470E-1,-7.525202036E-1,1.262508512E0
2.239972750E0,7.077994198E-2,-3.562231958E-1,1.290049314E0
2.250030750E0,3.200946152E-1,-1.405506879E-1,1.537927985E0
2.260088750E0,2.842758894E-1,-2.318547666E-1,1.649283767E0
2.270146750E0,2.809347212E-1,-4.751896858E-1,1.702960014E0
2.280203750E0,1.106356829E-1,-1.117061615E0,1.392796636E0
2.290261750E0,7.484337687E-2,-1.097104907E0,1.105556607E0
2.300319750E0,-6.404366344E-2,-6.203166246E-1,1.188234687E0
2.310376750E0,-2.882640958E-1,-4.158716202E-1,9.583834410E-1
2.320434750E0,-3.728253245E-1,7.121467590E-2,8.637455702E-1
2.330492750E0,-5.240892172E-1,3.306418657E-1,8.030667901E-1
2.340550750E0,-4.740929008E-1,2.440665215E-1,8.647269607E-1
2.350607750E0,-3.632828593E-1,-9.611324966E-2,9.698778987E-1
2.360665750E0,-1.308248639E-1,-5.116404295E-1,1.103692770E0
2.370723750E0,-3.904206678E-2,-7.526513934E-1,1.228896856E0
2.380781750E0,1.200067103E-1,-8.124383092E-1,1.334007859E0
2.390838750E0,2.748460472E-1,-7.852686644E-1,1.441305280E0
2.400896750E0,4.978879094E-1,-7.432687879E-1,1.576525688E0
2.410954750E0,7.391993403E-1,-1.003799438E0,1.753527045E0
2.421012750E0,8.874812722E-1,-1.371297836E0,1.815848470E0
2.431069750E0,7.842233777E-1,-1.636476159E0,1.770097256E0
2.441127750E0,3.913711607E-1,-1.452999473E0,1.674366236E0
2.451185750E0,-4.686595872E-3,-7.626484632E-1,1.602140188E0
2.461243750E0,-4.473433793E-1,-5.231376290E-1,1.484527349E0
2.471300750E0,-3.917035460E-1,-5.981830955E-1,1.076053023E0
2.481358750E0,-7.566948533E-1,-4.763704240E-1,7.844589949E-1
2.491416750E0,-1.061271310E0,-7.437975146E-3,1.075152159E0
2.501473750E0,-1.105889440E0,-3.658336699E-1,9.977209568E-1
2.511531750E0,-5.830832124E-1,1.001844332E-1,7.581334114E-1
2.521589750E0,-2.641552389E-1,3.334714770E-1,4.005419910E-1
2.531647750E0,-4.859737307E-2,6.166328788E-1,-1.404263638E-2
2.541704750E0,1.048888490E-1,9.825634360E-1,-7.257822752E-1
2.551762750E0,1.702053845E-1,1.147177696E0,-1.058100343E0
2.561820750E0,9.501129389E-2,9.327080250E-1,-1.110733986E0
2.571878750E0,1.809355915E-1,7.683964372E-1,-1.455327511E0
2.581935750E0,8.571826667E-2,2.987698317E-1,-7.308774590E-1
2.591993750E0,-3.721341491E-1,-2.106036395E-1,1.871226281E-1
2.602051750E0,-9.158471823E-1,-4.691281617E-1,4.553889632E-1
2.612108750E0,-1.479444265E0,-6.639762521E-1,7.080502510E-1
2.622166750E0,-1.931722164E0,-1.002863169E0,8.999065161E-1
2.632224750E0,-2.173117638E0,-1.461028099E0,1.048163295E0
2.642282750E0,-2.245287180E0,-1.735830307E0,1.165421009E0
2.652339750E0,-2.206732273E0,-1.409517050E0,9.732004404E-1
2.662397750E0,-1.860307813E0,-1.130107522E0,8.994588256E-1
2.672455750E0,-1.377827883E0,-9.087490439E-1,9.724206924E-1
2.682513750E0,-8.675073385E-1,-7.211388946E-1,1.031046391E0
2.692570750E0,-3.388722837E-1,-4.923613369E-1,9.722643495E-1
2.702628750E0,1.885742098E-1,-2.318951190E-1,8.601329923E-1
2.712686750E0,5.030459166E-1,-5.050124601E-2,6.868224144E-1
2.722743750E0,6.318011880E-1,-7.074233145E-2,5.706710815E-1
2.732801750E0,5.759025216E-1,-4.861108586E-2,3.712245524E-1
2.742859750E0,3.486520350E-1,-1.055619866E-1,2.091264427E-1
2.752917750E0,9.367088228E-2,-1.007416695E-1,5.126145482E-2
2.762974750E0,-5.164423585E-2,-5.657020956E-2,-5.526392162E-2
2.773032750E0,-7.378170639E-2,-2.888382599E-2,-5.303003639E-2
2.783090750E0,-5.339334160E-2,-2.696208842E-2,-4.401550069E-2
2.793148750E0,-2.041045390E-2,-2.274081483E-2,-4.432505369E-2
2.803205750E0,-1.074252427E-1,-2.728416771E-2,-6.892147660E-2
2.813263750E0,-6.228981614E-1,-3.242681026E-1,7.848825306E-2
2.823321750E0,-6.441440582E-1,-3.582098484E-1,4.327408671E-1
2.833378750E0,-3.407126069E-1,-2.611891925E-1,4.165056944E-1
2.843436750E0,-1.814092696E-1,-3.638404608E-1,3.302661479E-1
2.853494750E0,-1.672523916E-1,-7.315551639E-1,2.248990387E-1
2.863552750E0,-1.408250481E-1,-1.075922370E0,1.323258877E-2
2.873609750E0,-1.449966133E-1,-1.326086164E0,-2.500322759E-1
2.883667750E0,-1.288778335E-1,-1.661240697E0,-4.485387206E-1
2.893725750E0,-4.362498596E-2,-2.076837063E0,-4.552453458E-1
2.903783750E0,1.308623999E-1,-1.870012879E0,-1.781213135E-1
2.913840750E0,4.873754978E-1,-1.173165560E0,4.443520904E-1
2.923898750E0,5.563348532E-1,-3.967726231E-1,1.117833853E0
2.933956750E0,6.325562000E-1,-1.786069274E-1,1.541417480E0
2.944013750E0,5.820320845E-1,-2.734407783E-1,1.689488411E0
2.954071750E0,3.986021578E-1,-2.730335593E-1,1.788681030E0
2.964129750E0,1.902790517E-1,-3.573300838E-1,1.860308647E0
2.974187750E0,-5.073253065E-2,-3.475127816E-1,1.891988516E0
2.984244750E0,-1.535803378E-1,-2.908836007E-1,1.962136269E0
2.994302750E0,-3.302744925E-1,-1.533261538E-1,2.090049982E0
3.004360750E0,-6.180303097E-1,-8.766587973E-1,1.994294405E0
3.014418750E0,-8.239518404E-1,-2.156811714E0,1.500766516E0
3.024475750E0,-2.241770923E-1,-2.119499922E0,9.962167740E-1
3.034533750E0,6.095144153E-1,-8.466044664E-1,7.568382621E-1
3.044591750E0,1.025531411E0,3.797817230E-1,5.268329978E-1
3.054648750E0,1.066621065E0,1.018841386E0,3.067209423E-1
3.064706750E0,6.831344366E-1,8.456906676E-1,2.261453718E-1
3.074764750E0,2.545387447E-1,4.627837241E-1,1.832208782E-1
3.084823583E0,-1.221576706E-1,1.033818871E-1,1.646458507E-1
3.094880583E0,-3.294035792E-1,-1.445852369E-1,6.973152608E-2
3.104938583E0,-1.788809001E-1,-1.645197868E-1,-1.239476576E-1
3.114996583E0,-2.259355737E-3,-2.116812617E-1,-5.416347459E-2
3.125053583E0,1.273670793E-1,-2.494901568E-1,1.245647296E-1
3.135111583E0,4.927492887E-2,-1.362903267E-1,4.411679506E-2
3.145169583E0,-1.201705560E-1,3.320601583E-2,-5.823594332E-2
3.155227583E0,-3.322479427E-1,6.792940944E-2,-6.776217371E-2
3.165284583E0,-2.873273492E-1,2.361365259E-1,-1.078118533E-1
3.175342583E0,-3.291949034E-1,1.838783771E-1,-2.117989063E-1
3.185400583E0,-1.232452020E-1,3.423723206E-2,-3.165203333E-2
3.195458583E0,-7.512262464E-2,1.220263615E-1,-3.690882027E-2
3.205515583E0,-6.229417399E-2,8.065815270E-2,-4.858518392E-2
3.215573583E0,-8.321736753E-2,7.976453751E-2,-2.825246751E-2
3.225631583E0,-1.099858657E-1,1.377607137E-1,-3.407866508E-2
3.235688583E0,-1.354898959E-1,2.109347731E-1,-2.321760729E-2
3.245746583E0,-1.634834409E-1,2.447907329E-1,-2.771009319E-2
3.255804583E0,-1.755319238E-1,2.771815658E-1,-1.500547305E-2
3.265862583E0,-1.830838472E-1,2.944180667E-1,-6.571242586E-3
3.275919583E0,-1.754832566E-1,3.156404495E-1,-1.696012449E-3
3.285977583E0,-1.560997069E-1,3.374501467E-1,-9.332178161E-5
3.296035583E0,-1.372033954E-1,3.610650003E-1,8.327649906E-3
3.306093583E0,-1.290280372E-1,3.563392162E-1,4.328913521E-3
3.316150583E0,-1.215224937E-1,3.408151865E-1,1.928007696E-3
3.326208583E0,-1.139359474E-1,3.285691738E-1,3.681965405E-3
