"Time (s)","X (rad/s)","Y (rad/s)","Z (rad/s)"
4.309320834E-2,-8.447805047E-1,-3.851590753E-1,1.921255440E-1
5.308720830E-2,-7.005022168E-1,-3.514407575E-1,1.424623579E-1
6.308120838E-2,-5.904441476E-1,-3.847611547E-1,8.401742578E-2
7.307520835E-2,-4.866024554E-1,-5.153467655E-1,3.199081868E-2
8.306920831E-2,-3.520680666E-1,-7.202077508E-1,-1.051669568E-2
9.306320839E-2,-1.784248799E-1,-9.734658599E-1,-6.626843661E-2
1.030572084E-1,3.139413521E-2,-1.183682442E0,-1.317811310E-1
1.130502083E-1,1.655996144E-1,-1.289818645E0,-1.296812296E-1
1.230442084E-1,1.431273222E-1,-1.323920727E0,-9.479647875E-2
1.330382084E-1,-8.814182365E-4,-1.332313418E0,-9.431117028E-2
1.430322083E-1,-1.970570534E-1,-1.309464574E0,-1.625845134E-1
1.530262084E-1,-4.024794400E-1,-1.235747695E0,-2.853703499E-1
1.630202084E-1,-5.648361444E-1,-1.116336942E0,-3.672431111E-1
1.730142083E-1,-7.243211865E-1,-1.014227509E0,-3.653200567E-1
1.830082084E-1,-8.368458748E-1,-9.769957066E-1,-3.591673672E-1
1.930022084E-1,-8.783627152E-1,-9.552872181E-1,-3.931841850E-1
2.029962083E-1,-8.752508163E-1,-1.027626872E0,-4.655672908E-1
2.129902084E-1,-8.445726633E-1,-1.137544632E0,-5.483355522E-1
2.229842084E-1,-8.114959002E-1,-1.205995083E0,-6.124253273E-1
2.329782083E-1,-7.680468559E-1,-1.219311714E0,-6.719856262E-1
2.429722083E-1,-7.391619086E-1,-1.139055014E0,-6.451069117E-1
2.529662084E-1,-6.999599934E-1,-1.014701247E0,-5.631807446E-1
2.629602083E-1,-6.629841328E-1,-8.846253753E-1,-5.267779827E-1
2.729542083E-1,-6.163125634E-1,-7.205634713E-1,-5.585475564E-1
2.829482084E-1,-5.739131570E-1,-5.084751844E-1,-6.343193054E-1
2.929422084E-1,-5.224094391E-1,-3.012183309E-1,-7.417329550E-1
3.029362083E-1,-4.592927694E-1,-9.663747996E-2,-8.841854334E-1
3.129302084E-1,-4.027134776E-1,7.040324807E-2,-1.020357609E0
3.229242084E-1,-3.350438774E-1,1.261173785E-1,-1.080566883E0
3.329182083E-1,-2.550346553E-1,4.583393037E-2,-1.054207683E0
3.429122084E-1,-1.228135154E-1,-1.047001854E-1,-9.992511272E-1
3.529052084E-1,5.984580144E-2,-2.038934976E-1,-9.438906908E-1
3.628992083E-1,3.161694407E-1,-1.572887152E-1,-8.803801537E-1
3.728932084E-1,6.363804340E-1,-5.342383310E-2,-7.710271478E-1
3.828872084E-1,9.741076231E-1,4.719492048E-2,-5.844461322E-1
3.928812083E-1,1.306051970E0,1.059724912E-1,-3.671508729E-1
4.028752084E-1,1.590515137E0,1.898040026E-1,-1.244703233E-1
4.128692084E-1,1.785243750E0,3.042256534E-1,1.212376878E-1
4.228632083E-1,1.862931609E0,1.535897702E-2,2.105265558E-1
4.328572083E-1,1.876515388E0,-7.422374487E-1,3.150499985E-2
4.428512084E-1,1.896616459E0,-1.532373786E0,-1.352477670E-1
4.528452083E-1,1.872690082E0,-1.909056067E0,-3.239398450E-2
4.628392083E-1,1.744209647E0,-1.941740870E0,3.083702624E-1
4.728332084E-1,1.412274957E0,-1.806744337E0,6.640145183E-1
4.828272084E-1,1.039467573E0,-1.597522855E0,1.022081494E0
4.928212083E-1,9.350070953E-1,-1.561398983E0,1.496911168E0
5.028152084E-1,5.314801335E-1,-1.867900491E0,1.929438353E0
5.128092500E-1,-1.718982309E-1,-2.201537132E0,2.619534969E0
5.228032500E-1,-7.369427085E-1,-2.249723196E0,3.015331745E0
5.327972501E-1,-1.275234461E0,-2.403853655E0,3.325976372E0
5.427912500E-1,-1.718578339E0,-2.972363710E0,3.576569080E0
5.527852500E-1,-2.173257828E0,-3.771539927E0,3.747987032E0
5.627792500E-1,-2.716923952E0,-4.564249039E0,4.024880886E0
5.727732501E-1,-3.266374350E0,-4.960911751E0,4.416468143E0
5.827672500E-1,-3.656878471E0,-4.802725315E0,4.731773376E0
5.927612500E-1,-4.100876331E0,-4.160871983E0,4.761785984E0
6.027542501E-1,-4.284780979E0,-3.590735197E0,4.712827206E0
6.127482500E-1,-4.302923679E0,-3.118413448E0,4.882890224E0
6.227422500E-1,-4.225832462E0,-2.604467154E0,5.196356773E0
6.327362501E-1,-3.972459316E0,-2.524938822E0,5.460443974E0
6.427302500E-1,-3.626069307E0,-2.816325426E0,5.572212219E0
6.527242500E-1,-3.226383209E0,-3.006837845E0,5.576217175E0
6.627182501E-1,-2.812338352E0,-2.805455208E0,5.397991180E0
6.727122500E-1,-2.572731972E0,-2.301023483E0,5.057411671E0
6.827062500E-1,-2.596317530E0,-1.465403318E0,4.682307720E0
6.927002501E-1,-2.816630602E0,-5.241098404E-1,4.441495419E0
7.026942500E-1,-3.081786156E0,2.341594845E-1,4.318164825E0
7.126882500E-1,-3.352844238E0,6.076393723E-1,4.146155357E0
7.226822501E-1,-3.596502304E0,9.368002415E-1,3.923362255E0
7.326762500E-1,-3.575854301E0,1.377812624E0,3.484348059E0
7.426702500E-1,-3.312095404E0,1.527196288E0,2.873566866E0
7.526642500E-1,-2.921004295E0,1.709749937E0,2.131838322E0
7.626582501E-1,-2.556872129E0,1.974926233E0,1.439691424E0
7.726522500E-1,-2.298274279E0,1.990838051E0,9.887466431E-1
7.826462500E-1,-2.041697741E0,1.983948231E0,6.564571261E-1
7.926402501E-1,-1.793825388E0,2.168371677E0,3.869047463E-1
8.026342500E-1,-1.667199969E0,2.368990421E0,2.554058433E-1
8.126282500E-1,-1.662645221E0,2.369178057E0,1.865961999E-1
8.226222501E-1,-1.778945684E0,1.988256454E0,4.887668043E-2
8.326162500E-1,-2.033227682E0,1.525362015E0,-4.428003430E-1
8.426102500E-1,-2.104628801E0,1.300115228E0,-9.940373898E-1
8.526032501E-1,-2.092948198E0,1.155327916E0,-1.483968735E0
8.625972500E-1,-1.983408332E0,1.214353204E0,-1.774998784E0
8.725912500E-1,-1.794827461E0,1.368770599E0,-1.758292198E0
8.825852501E-1,-1.571966767E0,1.511176229E0,-1.548728824E0
8.925792500E-1,-1.280321240E0,1.640888929E0,-1.258519650E0
9.025732500E-1,-1.014422417E0,1.623042822E0,-9.699791670E-1
9.125672501E-1,-8.914691210E-1,1.284877181E0,-7.811782956E-1
9.225612500E-1,-8.793296218E-1,2.771471143E-1,-7.585371733E-1
9.325552500E-1,-8.264334798E-1,-1.128437281E0,-8.225619793E-1
9.425492500E-1,-4.860245287E-1,-2.239682674E0,-6.916980147E-1
9.525432501E-1,-1.143570468E-1,-2.913727760E0,-3.114132881E-1
9.625372500E-1,2.937912941E-1,-2.891161919E0,1.382497400E-1
9.725312500E-1,5.755758882E-1,-2.285238981E0,4.225130081E-1
9.825252501E-1,4.869879484E-1,-1.323416829E0,5.667995811E-1
9.925192500E-1,2.226134241E-1,-5.086777210E-1,6.326081157E-1
1.002513250E0,-6.436376274E-2,-1.313102096E-1,6.332691312E-1
1.012507250E0,-1.755978614E-1,-2.076286823E-1,6.845282912E-1
1.022501250E0,-1.989055872E-1,-6.315999031E-1,9.041445255E-1
1.032495250E0,-2.369191200E-1,-1.341807485E0,1.283020020E0
1.042489250E0,-4.116325974E-1,-1.987882853E0,1.853193283E0
1.052483250E0,-8.281512260E-1,-2.673513651E0,2.553276539E0
1.062477250E0,-1.455451846E0,-3.088848829E0,3.028146505E0
1.072471250E0,-2.096223116E0,-3.198127270E0,3.016836166E0
1.082465250E0,-2.568427801E0,-3.131156445E0,2.595215321E0
1.092458250E0,-2.863176346E0,-2.706940651E0,2.126119614E0
1.102452250E0,-3.182988882E0,-1.871482134E0,1.961102486E0
1.112446250E0,-3.576436520E0,-8.744860291E-1,2.085366011E0
1.122440250E0,-3.906689405E0,-1.072810590E-2,2.338241577E0
1.132434250E0,-3.968827009E0,3.176068664E-1,2.818013191E0
1.142428250E0,-3.745026588E0,3.250562549E-1,3.537479401E0
1.152422250E0,-3.338773251E0,2.478242218E-1,3.990750790E0
1.162416250E0,-2.837056160E0,-8.282132447E-3,3.851427317E0
1.172410250E0,-2.155137539E0,-3.710147738E-1,3.278608561E0
1.182404250E0,-1.594679594E0,-2.528814673E-1,2.599386454E0
1.192398250E0,-1.506907463E0,4.108752608E-1,2.146577120E0
1.202392250E0,-1.785192370E0,9.366304278E-1,1.932987452E0
1.212386250E0,-2.089324951E0,1.408694029E0,1.710348248E0
1.222380250E0,-2.334497213E0,1.975531936E0,1.502654672E0
1.232374250E0,-2.452554941E0,2.200701475E0,1.287535548E0
1.242368250E0,-2.527614832E0,2.464599371E0,9.724268317E-1
1.252362250E0,-2.537392616E0,2.566676378E0,5.357018709E-1
1.262356250E0,-2.104071617E0,2.212621450E0,-1.304236650E-1
1.272350250E0,-1.412096143E0,1.544215441E0,-1.025478601E0
1.282344250E0,-9.253132343E-1,1.372288465E0,-2.066192627E0
1.292338250E0,-4.756042361E-1,1.206766605E0,-3.241434813E0
1.302332250E0,1.252030283E-1,8.025472164E-1,-4.148205757E0
1.312326250E0,1.494494081E-1,7.674673200E-1,-4.814209938E0
1.322319250E0,-4.866075143E-2,7.990785241E-1,-5.239801407E0
1.332313250E0,-2.910548449E-1,8.049201965E-1,-5.347322464E0
1.342307250E0,-6.021314859E-1,5.815598369E-1,-5.534207821E0
1.352301250E0,-9.329000115E-1,2.321335226E-1,-5.920873642E0
1.362295250E0,-5.108619332E-1,-1.598999649E-2,-4.619655609E0
1.372289250E0,-5.988325477E-1,-7.899951935E-1,-3.140168667E0
1.382283250E0,-1.118973970E0,-1.052556515E0,-2.634164095E0
1.392277250E0,-1.409598470E0,-1.020721555E0,-2.899952650E0
1.402271250E0,-1.492987275E0,-1.670668364E0,-3.411834717E0
1.412265250E0,-1.205083370E0,-2.445272446E0,-3.970544100E0
1.422259250E0,-7.990788817E-1,-2.798193216E0,-4.222244740E0
1.432253250E0,-5.388302803E-1,-1.788965821E0,-3.540452957E0
1.442247250E0,-2.596654892E-1,-6.418690681E-1,-2.685772419E0
1.452241250E0,2.206531353E-2,5.164014101E-1,-2.082786560E0
1.462235250E0,-7.912282646E-2,9.399420023E-1,-2.197041273E0
1.472229250E0,-2.641725540E-2,1.289650202E0,-2.365084171E0
1.482223250E0,3.161816597E-1,1.791020870E0,-2.234186888E0
1.492217250E0,7.392836809E-1,1.883753538E0,-1.943305135E0
1.502211250E0,1.069684029E0,1.143300414E0,-1.970869422E0
1.512204750E0,1.274232745E0,4.616128802E-1,-2.460791349E0
1.522198750E0,1.957772136E0,1.444974840E-1,-1.509527445E0
1.532192750E0,2.326034784E0,6.354511976E-1,-9.746357203E-1
1.542186750E0,1.947485328E0,8.552792072E-1,-1.270199180E0
1.552179750E0,1.303003430E0,1.037836552E0,-1.242816806E0
1.562173750E0,1.021347523E0,-3.244683743E-1,-1.301772237E0
1.572167750E0,1.098146200E0,-1.141657591E0,-1.219337583E0
1.582161750E0,-1.238870919E-1,-1.150427103E0,-1.571078300E0
1.592155750E0,-6.027118564E-1,-5.859881043E-1,-1.273980975E0
1.602149750E0,-1.122060418E-1,-2.940502763E-1,-9.156390429E-1
1.612143750E0,3.544683754E-1,-4.783942997E-1,-9.023917317E-1
1.622137750E0,6.210274100E-1,-4.101470709E-1,-1.003485799E0
1.632131750E0,8.431555629E-1,-3.816374838E-1,-1.096207023E0
1.642125750E0,1.113928676E0,-3.855947405E-2,-1.343081832E0
1.652119750E0,1.210773349E0,3.846294805E-2,-1.598057151E0
1.662113750E0,8.981226087E-1,-1.595824957E-1,-1.647318959E0
1.672107750E0,6.993916631E-2,-2.980723977E-1,-1.477999568E0
1.682101750E0,-6.891996861E-1,-3.702715039E-1,-1.219607353E0
1.692095750E0,-9.832640886E-1,-2.006845921E-1,-9.897521138E-1
1.702089750E0,-7.291141152E-1,1.329002976E-1,-8.667268753E-1
1.712083750E0,-3.342968225E-1,2.316088378E-1,-9.437503219E-1
1.722077750E0,-1.345248660E-3,-1.201207004E-2,-1.048950791E0
1.732071750E0,1.746257395E-1,-1.477066725E-1,-1.111196160E0
1.742065750E0,3.096988797E-1,-1.621535271E-1,-1.171829939E0
1.752059750E0,4.857534766E-1,-3.016370535E-1,-1.290733337E0
1.762053750E0,7.311176658E-1,-5.233460069E-1,-1.387869000E0
1.772047750E0,7.057660222E-1,-4.288537800E-1,-1.395941138E0
1.782040750E0,7.578644156E-1,-2.875344753E-1,-1.395254850E0
1.792034750E0,9.828637242E-1,-4.626488686E-1,-1.413017750E0
1.802028750E0,1.131734848E0,-7.261667848E-1,-1.430266142E0
1.812022750E0,9.636825919E-1,-6.654577255E-1,-1.503337383E0
1.822016750E0,6.181936264E-1,-4.159743786E-1,-1.521055937E0
1.832010750E0,3.132909238E-1,-2.832328975E-1,-1.464099884E0
1.842004750E0,1.531649940E-2,-2.181766927E-1,-1.442212939E0
1.851998750E0,-3.928978443E-1,-7.861555368E-2,-1.364712954E0
1.861992750E0,-5.565847754E-1,-4.395371303E-2,-1.253950834E0
1.871986750E0,-3.055190146E-1,-1.866750866E-1,-1.174206972E0
1.881980750E0,7.379208505E-2,-1.557906717E-1,-1.153754711E0
1.891974750E0,4.116340876E-1,3.044377640E-2,-1.077062607E0
1.901968750E0,5.996375084E-1,-5.228732154E-2,-1.005435586E0
1.911962750E0,5.512349606E-1,-2.438166738E-1,-9.049450159E-1
1.921956750E0,2.731244564E-1,-2.559529543E-1,-7.732812762E-1
1.931950750E0,-1.355358027E-2,-2.602236271E-1,-5.017622709E-1
1.941944750E0,-2.231355757E-1,-1.942416728E-1,-1.904169172E-1
1.951938750E0,-2.406486869E-1,2.032654174E-2,-4.041310027E-2
1.961932750E0,-3.020254672E-1,1.039908081E-1,-3.500092309E-3
1.971926750E0,-5.248277187E-1,2.246145308E-1,1.165962741E-1
1.981920750E0,-7.161249518E-1,3.446442485E-1,3.284794986E-1
1.991914750E0,-8.871503472E-1,5.772206187E-1,5.694295764E-1
2.001908750E0,-9.474855661E-1,9.261181355E-1,8.615549207E-1
2.011901750E0,-8.478870988E-1,1.327216744E0,1.198647738E0
2.021895750E0,-6.411922574E-1,1.675942659E0,1.565396667E0
2.031889750E0,-3.338799477E-1,1.904889703E0,1.933339953E0
2.041883750E0,1.034864560E-1,1.939301729E0,2.229660511E0
2.051877750E0,6.192675829E-1,1.874961495E0,2.520591974E0
2.061871750E0,1.202169895E0,1.770212650E0,2.815420151E0
2.071865750E0,1.675804019E0,1.406439543E0,3.160894632E0
2.081859750E0,1.993473411E0,8.253128529E-1,3.226662159E0
2.091853750E0,2.092716932E0,1.637662053E-1,3.040744305E0
2.101847750E0,2.050500870E0,-5.048368573E-1,2.689492941E0
2.111841750E0,1.693876624E0,-1.137089729E0,2.011756420E0
2.121835750E0,6.486761570E-1,-1.679426551E0,1.691599131E0
2.131829750E0,-6.755182743E-1,-2.589811802E0,1.244299650E0
2.141823750E0,-1.514107227E0,-3.410219193E0,3.724542260E-1
2.151817750E0,-1.722382545E0,-3.295216799E0,-4.308497012E-1
2.161811750E0,-1.326615810E0,-1.401505470E0,-6.202806234E-1
2.171805750E0,-5.852999687E-1,2.370588630E-1,-6.241828799E-1
2.181799750E0,2.317096591E-1,7.365461588E-1,-4.415360689E-1
2.191793750E0,6.687533259E-1,1.027814031E0,2.773860693E-1
2.201787750E0,4.218154252E-1,1.554200768E0,5.687845945E-1
2.211781750E0,3.415469527E-1,9.869009852E-1,4.039270878E-1
2.221775750E0,7.655339241E-1,3.640083969E-1,-6.639408879E-3
2.231768750E0,1.352573395E0,4.259065986E-1,-3.256439567E-1
2.241762750E0,1.731411219E0,7.830495238E-1,-3.847671747E-1
2.251756750E0,1.780644536E0,1.226146936E0,-4.829216897E-1
2.261750750E0,1.716439962E0,1.749401808E0,-2.304864824E-1
2.271744750E0,1.464757442E0,2.521187067E0,3.031736799E-2
2.281738750E0,1.553997517E0,3.592999697E0,1.239748821E-1
2.291732750E0,1.679054379E0,3.685298681E0,2.974877059E-1
2.301726750E0,1.429733038E0,3.018266916E0,2.594817579E-1
2.311720750E0,1.023636818E0,1.934856534E0,5.629845336E-2
2.321714750E0,5.026869774E-1,8.780797720E-1,-2.336249799E-1
2.331708750E0,-7.301559299E-2,1.987996846E-1,-4.356044531E-1
2.341702750E0,-5.670245290E-1,-3.251422942E-2,-5.384643078E-1
2.351696750E0,-8.295617104E-1,-1.247412562E-1,-6.650137305E-1
2.361690750E0,-9.380181432E-1,-6.235374808E-1,-7.490577698E-1
2.371684750E0,-8.633900285E-1,-1.297888160E0,-5.794320703E-1
2.381678750E0,-6.716296673E-1,-1.576194048E0,-2.993449867E-1
2.391672750E0,-7.636810541E-1,-1.914475560E0,-1.209076717E-1
2.401666750E0,-1.025961399E0,-1.799745798E0,-4.258121848E-1
2.411660750E0,-7.738745213E-1,-1.539557934E0,-2.630468369E0
2.421654750E0,2.729222365E-2,-1.245900273E0,-1.873550534E0
2.431648750E0,5.833308101E-1,-4.767153263E-1,-1.088994861E0
2.441642750E0,5.298739672E-1,-3.024993464E-3,-9.378165007E-1
2.451635750E0,4.570688009E-1,7.071021199E-1,-9.067334533E-1
2.461629750E0,5.871338844E-1,9.671345353E-1,-7.385612130E-1
2.471623750E0,7.611039877E-1,4.417269528E-1,-5.883226991E-1
2.481617750E0,7.379571199E-1,-6.015980244E-1,-5.403749347E-1
2.491611750E0,5.316728354E-1,-1.097070098E0,-5.594233274E-1
2.501605750E0,7.046262175E-2,-1.274015784E0,-5.331560373E-1
2.511599750E0,-5.426554680E-1,-1.693269491E0,-5.060310960E-1
2.521594458E0,-8.592267632E-1,-2.140709162E0,-5.964068174E-1
2.531588458E0,-5.130752325E-1,-2.017446756E0,-8.629541993E-1
2.541582458E0,2.049172968E-1,-1.123930693E0,-1.009133816E0
2.551576458E0,4.636944532E-1,-8.296356797E-1,-1.036164165E0
2.561570458E0,2.178428918E-1,-8.376951814E-1,-1.024945498E0
2.571564458E0,-3.060001433E-1,-7.281610966E-1,-1.060462952E0
2.581558458E0,-8.554308414E-1,-9.439584017E-1,-1.127465367E0
2.591552458E0,-1.159846425E0,-1.207260370E0,-1.157816172E0
2.601546458E0,-1.244192719E0,-1.348879218E0,-1.135254383E0
2.611540458E0,-1.287182570E0,-1.301019430E0,-1.029093981E0
2.621534458E0,-1.274215102E0,-7.694971561E-1,-8.456658125E-1
2.631528458E0,-1.141702533E0,-1.334859282E-1,-5.966874361E-1
2.641522458E0,-8.748732805E-1,1.411216557E-1,-2.823662460E-1
2.651516458E0,-4.957349896E-1,2.188342959E-1,3.911378235E-2
2.661509458E0,-2.162503451E-1,1.226513088E-1,3.537329733E-1
2.671503458E0,-6.237740070E-2,3.071365952E-1,6.385170817E-1
2.681497458E0,4.556903988E-2,6.412240267E-1,8.967784643E-1
2.691491458E0,1.237806454E-1,7.435568571E-1,1.166223884E0
2.701485458E0,3.154440820E-1,6.223137975E-1,1.491671801E0
2.711479458E0,6.996901035E-1,8.788940907E-1,1.849734068E0
2.721473458E0,1.011657596E0,1.255124450E0,2.290041208E0
2.731467458E0,1.133099079E0,1.671804070E0,2.672503710E0
2.741461458E0,1.186360359E0,2.342116356E0,2.428580523E0
2.751455458E0,1.535785794E0,2.282610178E0,2.361160040E0
2.761449458E0,1.708910465E0,1.743607640E0,2.233156443E0
2.771443458E0,1.464672685E0,1.759782791E0,1.570592880E0
2.781437458E0,8.387847543E-1,1.889021516E0,6.089717746E-1
2.791431458E0,2.262704521E-1,1.266530991E0,1.605174839E-1
2.801425458E0,-2.604946792E-1,4.601204991E-1,-1.316027939E-1
2.811419458E0,-3.593378961E-1,-6.132029891E-1,-6.358923912E-1
2.821413458E0,-2.733145952E-1,-1.138037801E0,-1.031572819E0
2.831407458E0,-1.983680278E-1,-9.436209798E-1,-1.207052350E0
2.841401458E0,-2.762833238E-1,-5.886428952E-1,-1.165990591E0
2.851395458E0,-5.577082038E-1,-5.721684545E-2,-1.025427341E0
2.861389458E0,-9.187039733E-1,3.067264855E-1,-8.331021070E-1
2.871383458E0,-1.139610291E0,5.299743414E-1,-6.692875624E-1
2.881376458E0,-1.131413341E0,6.452090740E-1,-4.387744367E-1
2.891370458E0,-9.647434354E-1,6.865046620E-1,-2.364753038E-1
2.901364458E0,-7.185294032E-1,5.697487593E-1,-1.142298207E-1
2.911358458E0,-4.752814174E-1,2.886021137E-1,-3.288552165E-2
2.921352458E0,-3.156014681E-1,-5.917740241E-2,4.779760540E-2
2.931346458E0,-2.349853516E-1,-3.068339825E-1,1.265681237E-1
2.941340458E0,-1.743893921E-1,-4.190958142E-1,1.786579639E-1
2.951334458E0,-1.322704405E-1,-4.528249502E-1,2.049882114E-1
2.961328458E0,-1.156310141E-1,-4.487255514E-1,2.076005042E-1
2.971322458E0,-1.468562335E-1,-4.042115211E-1,1.813636869E-1
2.981316458E0,-2.162491530E-1,-3.374716341E-1,1.395014673E-1
2.991310458E0,-2.950826585E-1,-2.990540266E-1,9.463966638E-2
3.001304458E0,-3.525784314E-1,-2.895348370E-1,6.353714317E-2
3.011298458E0,-3.629155457E-1,-3.015035689E-1,4.607210308E-2
3.021292458E0,-3.199917972E-1,-3.196740448E-1,3.621121868E-2
3.031286458E0,-2.576498091E-1,-3.044489026E-1,2.690295689E-2
3.041280458E0,-1.941089332E-1,-2.567956448E-1,2.542463504E-2
3.051274458E0,-1.446279883E-1,-2.004601508E-1,3.060388379E-2
3.061268458E0,-9.838884324E-2,-1.546527147E-1,4.027887806E-2
3.071262458E0,-4.310294986E-2,-1.346430480E-1,5.459922925E-2
3.081256458E0,9.413786232E-3,-1.147971824E-1,7.423365116E-2
3.091250458E0,5.785517767E-2,-9.876302630E-2,8.888613433E-2
3.101243458E0,9.256735444E-2,-8.644111454E-2,1.047117040E-1
3.111237458E0,1.135705113E-1,-8.489296585E-2,1.108805314E-1
3.121231458E0,1.162437946E-1,-8.767782897E-2,1.045027897E-1
3.131225458E0,1.100090519E-1,-9.260674566E-2,9.358952940E-2
3.141219458E0,9.513716400E-2,-9.787980467E-2,7.262219489E-2
3.151213458E0,7.197256386E-2,-8.831772953E-2,4.333055764E-2
3.161207458E0,5.184359103E-2,-7.718572021E-2,1.974586770E-2
3.171201458E0,4.188474640E-2,-6.040265784E-2,3.632651875E-3
3.181195458E0,4.919166118E-2,-3.637162596E-2,-6.285492796E-3
3.191189458E0,7.265189290E-2,-9.466299787E-3,-9.570809081E-3
3.201183458E0,1.067637876E-1,2.693032287E-2,-2.296384424E-3
3.211177458E0,1.383965313E-1,6.286502630E-2,3.357723122E-3
3.221171458E0,1.598850489E-1,8.566381037E-2,8.558876812E-3
3.231165458E0,1.609360874E-1,9.227591753E-2,1.602325402E-2
3.241159458E0,1.531913579E-1,8.907613158E-2,1.518409140E-2
3.251153458E0,1.448640376E-1,7.428636402E-2,1.651934907E-2
3.261147458E0,1.342105865E-1,6.068240479E-2,2.280254476E-2
3.271141458E0,1.223333254E-1,5.360233411E-2,3.128253669E-2
3.281135458E0,1.118236929E-1,4.463600367E-2,4.155168682E-2
3.291129458E0,1.100397334E-1,3.892739862E-2,5.222288892E-2
3.301123458E0,1.240586117E-1,3.419815749E-2,6.957498938E-2
3.311117458E0,1.443571895E-1,3.390035406E-2,7.036893070E-2
3.321110458E0,1.643892229E-1,4.603691027E-2,6.197677553E-2
3.331104458E0,1.703303158E-1,5.129275844E-2,4.464567453E-2
3.341098458E0,1.728297025E-1,5.320251361E-2,2.794525772E-2
3.351092458E0,1.621554643E-1,5.567783490E-2,1.287285239E-2
3.361086458E0,1.373156309E-1,5.445144698E-2,3.691604361E-3
