"Time (s)","X (rad/s)","Y (rad/s)","Z (rad/s)"
1.654528750E-1,5.929121375E-1,5.061224103E-1,-8.224942684E-1
1.754628750E-1,1.318294287E0,1.569593847E-1,-4.339920878E-1
1.854418750E-1,1.593326569E0,8.370941505E-4,-6.396865249E-1
1.954518750E-1,1.660792351E0,4.492899776E-1,-6.472365856E-1
2.054618750E-1,1.640034795E0,4.980481565E-1,-4.524853826E-1
2.154718750E-1,1.311945081E0,5.472570062E-1,-5.143039823E-1
2.254508750E-1,9.277995825E-1,8.860049844E-1,-6.840633154E-1
2.354608750E-1,6.146422029E-1,1.138173342E0,-7.798377872E-1
2.454698750E-1,3.422342837E-1,1.146593332E0,-7.420218587E-1
2.554798750E-1,7.903514802E-2,1.068761110E0,-5.540711284E-1
2.654898750E-1,-1.707212478E-1,1.151186109E0,-2.971271873E-1
2.754688750E-1,-2.652530670E-1,1.486883759E0,1.483841427E-2
2.854788750E-1,-2.416048646E-1,1.889569402E0,2.590772212E-1
2.954888750E-1,-1.107043773E-1,1.998007059E0,3.251425326E-1
3.054978750E-1,1.483795047E-1,1.918853760E0,2.450159788E-1
3.154778750E-1,4.105669260E-1,1.829165936E0,1.371728480E-1
3.254868750E-1,3.831447065E-1,1.681962967E0,1.474440545E-1
3.354968750E-1,-2.102700807E-2,1.651623964E0,2.440161407E-1
3.455068750E-1,-6.111492515E-1,1.758947492E0,3.271478415E-1
3.555168750E-1,-1.239358306E0,1.713956594E0,3.511059284E-1
3.654958750E-1,-1.822042584E0,1.385445356E0,3.282577991E-1
3.755058750E-1,-2.286840916E0,9.915927052E-1,2.935067415E-1
3.855158750E-1,-2.655181408E0,6.014698148E-1,2.573929131E-1
3.955248750E-1,-2.950262547E0,1.353761703E-1,1.866438985E-1
4.055048750E-1,-3.169946909E0,-3.551008105E-1,5.201315880E-2
4.155138750E-1,-3.368134260E0,-7.975854874E-1,-7.963248342E-2
4.255238750E-1,-3.547263622E0,-1.359087586E0,-1.235936582E-1
4.355338750E-1,-3.702162027E0,-2.241856098E0,-2.562262118E-2
4.455438750E-1,-3.937526464E0,-2.881466389E0,9.482506663E-2
4.555228750E-1,-4.301253796E0,-2.949111700E0,1.269529164E-1
4.655328750E-1,-4.756476402E0,-2.717581987E0,1.007386893E-1
4.755418750E-1,-5.229755878E0,-2.449106932E0,5.271204561E-2
4.855518750E-1,-5.618302345E0,-2.393889904E0,3.834728152E-3
4.955308750E-1,-5.832285404E0,-2.754999876E0,-2.007714938E-3
5.055408750E-1,-5.721153736E0,-3.319095135E0,1.042176113E-1
5.155508750E-1,-5.139409065E0,-3.787947655E0,4.332133532E-1
5.255608750E-1,-4.033631802E0,-3.413668871E0,7.710288167E-1
5.355698750E-1,-2.755978346E0,-2.471412420E0,6.862662435E-1
5.455498750E-1,-1.580018163E0,-1.245859027E0,3.725247085E-1
5.555588750E-1,-6.480623484E-1,2.171533927E-2,5.683198944E-2
5.655688750E-1,1.145728454E-1,9.726504683E-1,-1.042415276E-1
5.755788750E-1,8.295828700E-1,1.404057026E0,-3.547471762E-2
5.855578750E-1,1.590038419E0,1.074051619E0,1.659957170E-1
5.955678750E-1,2.318357229E0,6.845870018E-1,3.153080046E-1
6.055778750E-1,2.731673002E0,-1.141967058E0,2.321986258E-1
6.155878750E-1,2.584266663E0,-3.139029264E0,-1.553379148E-1
6.255968750E-1,2.225183010E0,-3.834395409E0,-7.926314473E-1
6.355768750E-1,1.824946284E0,-4.042314529E0,-1.391469002E0
6.455890000E-1,1.380188584E0,-4.173407555E0,-1.801410079E0
6.555990000E-1,9.068156481E-1,-4.318738461E0,-2.023789644E0
6.656090000E-1,4.111154675E-1,-4.483794212E0,-2.219325781E0
6.755880000E-1,-1.598529220E-1,-4.577556133E0,-2.466931105E0
6.855980000E-1,-1.330168486E0,-3.957626104E0,-2.507808208E0
6.956080000E-1,-2.298495770E0,-4.129148006E0,-2.106274843E0
7.056170000E-1,-2.719283104E0,-4.588060856E0,-1.029788971E0
7.156270000E-1,-2.031116009E0,-4.518009186E0,1.216017157E-1
7.256060000E-1,-9.147071242E-1,-4.394070625E0,6.588727832E-1
7.356160000E-1,2.310752869E-1,-4.547555923E0,3.386340439E-1
7.456260000E-1,1.144416690E0,-4.844559669E0,2.765631303E-2
7.556360000E-1,1.359047055E0,-5.359928608E0,3.865638673E-1
7.656150000E-1,9.696164727E-1,-5.747282505E0,9.675182700E-1
7.756250000E-1,6.049208045E-1,-6.219143391E0,1.326535821E0
7.856340000E-1,6.517086625E-1,-6.816129684E0,1.689330459E0
7.956440000E-1,9.885364175E-1,-7.258150101E0,2.155242443E0
8.056540000E-1,1.492365003E0,-7.533663273E0,2.646162510E0
8.156330000E-1,2.053062916E0,-7.536863327E0,3.180026531E0
8.256430000E-1,2.303811073E0,-7.135919094E0,3.618773460E0
8.356530000E-1,2.191049576E0,-6.644758224E0,4.207125187E0
8.456630000E-1,1.817572832E0,-6.330028534E0,4.657119751E0
8.556420000E-1,1.400453329E0,-6.264293194E0,4.848619938E0
8.656520000E-1,1.107745051E0,-6.177752018E0,4.871995449E0
8.756610000E-1,1.005294800E0,-6.092257500E0,4.914480209E0
8.856710000E-1,1.063071012E0,-5.672545433E0,4.953740597E0
8.956810000E-1,1.230128765E0,-4.702989578E0,5.105336189E0
9.056600000E-1,1.482950091E0,-3.640064001E0,5.349228382E0
9.156700000E-1,1.839918256E0,-2.641434669E0,5.623290539E0
9.256800000E-1,2.178532839E0,-1.844678879E0,5.572335243E0
9.356890000E-1,2.406449556E0,-1.265127659E0,5.284588814E0
9.456690000E-1,2.464708328E0,-1.331892014E0,5.191606045E0
9.556780000E-1,2.427263737E0,-1.892258406E0,5.074607849E0
9.656880000E-1,2.285041094E0,-2.871814966E0,4.832239628E0
9.756980000E-1,2.230833530E0,-3.868795395E0,4.570793152E0
9.857080000E-1,2.526590824E0,-4.269555092E0,4.356751919E0
9.956870000E-1,2.917634249E0,-4.246823311E0,4.101759434E0
1.005697000E0,3.168938875E0,-3.952825308E0,3.800829172E0
1.015706000E0,3.263270378E0,-3.420450687E0,3.550006866E0
1.025716000E0,3.111588001E0,-2.752593279E0,3.238683224E0
1.035696000E0,2.860877991E0,-2.064371109E0,2.908573627E0
1.045705000E0,2.510884523E0,-1.680565834E0,2.586745262E0
1.055715000E0,2.135190010E0,-1.558943272E0,2.265226841E0
1.065725000E0,1.824428678E0,-1.556051254E0,1.954048872E0
1.075735000E0,1.573814273E0,-1.565885782E0,1.700688004E0
1.085714000E0,1.418498039E0,-1.517108917E0,1.531072021E0
1.095724000E0,1.426021338E0,-1.435134768E0,1.407376766E0
1.105733000E0,1.574205875E0,-1.347547054E0,1.262000918E0
1.115743000E0,1.728239059E0,-1.305199385E0,1.065372825E0
1.125722000E0,1.766755342E0,-1.250325799E0,8.663652539E-1
1.135732000E0,1.718207479E0,-1.049294949E0,7.100837827E-1
1.145742000E0,1.505439639E0,-8.692351580E-1,3.878298700E-1
1.155752000E0,1.215527654E0,-8.775450587E-1,7.203782350E-2
1.165761000E0,9.957698584E-1,-8.351649642E-1,-2.892943919E-1
1.175741000E0,6.914568543E-1,-6.633468270E-1,-6.606157422E-1
1.185750000E0,-2.207373530E-1,-3.242003918E-2,-9.871488214E-1
1.195760000E0,-1.294237852E0,8.471986651E-1,-9.279826880E-1
1.205770000E0,-2.001753330E0,1.740340114E0,-7.876765132E-1
1.215749000E0,-2.343988657E0,2.194187641E0,-7.657120824E-1
1.225759000E0,-2.304403543E0,2.109611750E0,-9.612394571E-1
1.235769000E0,-1.986742973E0,1.596096754E0,-1.259237409E0
1.245779000E0,-1.474373579E0,9.007598758E-1,-1.544627786E0
1.255788000E0,-1.261741161E0,1.241764873E-1,-1.669731617E0
1.265768000E0,-1.104018331E0,-4.621044695E-1,-1.510599852E0
1.275777000E0,-1.050558805E0,-1.024558187E0,-1.257665038E0
1.285787000E0,-6.758277416E-1,-1.642736912E0,-9.874686599E-1
1.295797000E0,5.017258227E-2,-2.083588600E0,-7.585135102E-1
1.305776000E0,6.634151340E-1,-2.027681112E0,-4.552775621E-1
1.315786000E0,2.852178216E-1,-1.537244558E0,-1.188868470E-2
1.325796000E0,-4.659923613E-1,-7.674760818E-1,5.247713923E-1
1.335805000E0,-1.022171736E0,-2.164806128E-1,1.090816140E0
1.345815000E0,-1.194152951E0,2.274713218E-1,1.717393875E0
1.355794000E0,-1.050153494E0,5.000008345E-1,2.506517887E0
1.365804000E0,-1.035815120E0,1.127504110E0,3.563745975E0
1.375814000E0,-1.163976073E0,1.996133089E0,4.457849026E0
1.385824000E0,-1.160600901E0,2.651311398E0,4.995934010E0
1.395803000E0,-1.035615802E0,2.219849110E0,5.136647224E0
1.405813000E0,-8.308219314E-1,1.472980142E0,4.798089504E0
1.415822000E0,-5.211423635E-1,9.764686227E-1,4.316103458E0
1.425832000E0,1.684633084E-2,5.360184312E-1,3.911345482E0
1.435842000E0,2.483109832E-1,-8.036433905E-2,3.857703686E0
1.445821000E0,4.008825868E-2,-5.990933776E-1,4.104684353E0
1.455831000E0,1.098337024E-2,-6.307615638E-1,3.950462580E0
1.465841000E0,1.901221275E-1,-8.947264403E-2,3.124469995E0
1.475851000E0,2.865088582E-1,7.467708588E-1,2.222163439E0
1.485830000E0,4.873698354E-1,1.331449747E0,1.852027178E0
1.495840000E0,8.933636546E-1,1.406297088E0,1.597073197E0
1.505849000E0,1.198427200E0,4.979464412E-1,6.643821001E-1
1.515859000E0,1.335347772E0,-9.698548317E-1,-2.773409784E-1
1.525869000E0,1.206862330E0,-2.302906036E0,-7.911962867E-1
1.535848000E0,7.879217267E-1,-3.009816408E0,-7.242993116E-1
1.545858000E0,3.187662959E-1,-2.793323994E0,-7.526528090E-2
1.555868000E0,-1.230939329E-1,-1.942986965E0,7.460096478E-1
1.565877000E0,-4.962697923E-1,-1.121266365E0,1.297087193E0
1.575857000E0,-7.206307054E-1,-5.909375548E-1,1.499049902E0
1.585866000E0,-6.720071435E-1,-3.024920225E-1,1.502141953E0
1.595876000E0,-3.919211924E-1,-1.928725839E-1,1.371489644E0
1.605886000E0,-2.890590765E-2,-2.806694210E-1,1.104457498E0
1.615896000E0,3.026680350E-1,-5.737301111E-1,7.531046271E-1
1.625875000E0,4.898098707E-1,-8.928838372E-1,4.787482917E-1
1.635885000E0,4.980862141E-1,-8.179603219E-1,4.576227665E-1
1.645879792E0,3.922260404E-1,-2.951949239E-1,7.432983518E-1
1.655889792E0,2.955194712E-1,3.600412309E-1,1.171500087E0
1.665868792E0,2.672391236E-1,6.427478194E-1,1.545328856E0
1.675878792E0,2.568360269E-1,1.312882602E-1,1.740171075E0
1.685888792E0,2.049478889E-1,-1.025531173E0,1.822414279E0
1.695898792E0,1.385880411E-1,-2.331403971E0,2.043914557E0
1.705908792E0,2.085860968E-1,-2.907340288E0,2.157681227E0
1.715887792E0,1.461674571E-1,-3.538679600E0,1.875691414E0
1.725897792E0,2.093561552E-2,-4.042346478E0,1.709698677E0
1.735906792E0,7.319989055E-2,-3.961868048E0,1.461904526E0
1.745916792E0,2.233950496E-1,-3.453556061E0,1.128213525E0
1.755895792E0,3.156730533E-1,-2.607966661E0,7.932696342E-1
1.765905792E0,3.022447824E-1,-1.633732915E0,4.678551555E-1
1.775915792E0,2.107452303E-1,-6.738676429E-1,1.144771352E-1
1.785925792E0,8.146327734E-2,-2.089692280E-2,-1.732814312E-1
1.795934792E0,-6.649529934E-2,2.756985426E-1,-2.866415679E-1
1.805914792E0,-1.892834455E-1,4.558371305E-1,-3.531127572E-1
1.815923792E0,-2.961012423E-1,7.099123001E-1,-4.071501493E-1
1.825933792E0,-1.410321593E-1,4.858907461E-1,-5.193984509E-1
1.835943792E0,4.645192921E-1,-4.221340120E-1,3.556470573E-1
1.845922792E0,6.953529119E-1,-3.546221256E-1,5.656595826E-1
1.855932792E0,9.189271927E-1,4.296697676E-1,-3.989110291E-1
1.865942792E0,9.790556431E-1,1.613826871E0,-6.445116997E-1
1.875952792E0,8.245329261E-1,2.285133362E0,-1.846506596E-1
1.885961792E0,5.420289040E-1,2.065559387E0,6.712793708E-1
1.895941792E0,-2.179653943E-1,2.480716944E0,1.825945258E0
1.905950792E0,-6.684823632E-1,2.350518465E0,2.426077843E0
1.915960792E0,-2.909859419E-1,1.721340179E0,2.557221651E0
1.925970792E0,-1.147279590E-1,1.490949631E0,2.340892792E0
1.935949792E0,-2.676751614E-1,1.159101963E0,1.559575200E0
1.945959792E0,-1.309704036E-1,7.665983438E-1,9.125397801E-1
1.955969792E0,1.782050356E-3,6.775270700E-1,4.598599076E-1
1.965978792E0,8.500117809E-2,3.313933611E-1,-6.764782220E-2
1.975988792E0,2.362580895E-1,-4.286307842E-2,-3.242098391E-1
1.985967792E0,2.924638987E-1,-2.492757887E-1,-3.145320415E-1
1.995977792E0,2.960272133E-1,-4.104918242E-1,-2.452602796E-2
2.005987792E0,1.980468035E-1,-2.978076935E-1,2.674167454E-1
2.015997792E0,1.064260677E-1,-3.381491825E-2,3.912755847E-1
2.025976792E0,3.544609621E-2,1.277699322E-1,3.763830662E-1
2.035986792E0,-2.623792738E-3,2.057313174E-1,3.253552914E-1
2.045995792E0,9.557509422E-2,3.410847783E-1,3.077510297E-1
2.056005792E0,2.449922562E-1,5.301870704E-1,2.768532932E-1
2.066015792E0,2.774068713E-1,5.644543171E-1,2.187623978E-1
2.075994792E0,2.002052963E-1,4.491671920E-1,1.502256840E-1
2.086004792E0,3.279280663E-1,-3.064538538E-1,2.063937783E-1
2.096014792E0,2.147728205E0,-4.909000397E0,4.376187623E-1
2.106024792E0,1.744938016E0,-5.170478344E0,2.861277461E-1
2.116003792E0,6.774358153E-1,-2.139243364E0,3.144243360E-1
2.126013792E0,1.612918973E-1,-9.106602669E-1,5.156831145E-1
2.136022792E0,2.400738001E-1,-6.646904349E-1,7.385590672E-1
2.146032792E0,2.428208292E-1,-3.754140139E-1,7.687941790E-1
2.156042792E0,4.215325415E-2,-1.391663104E-1,6.457350850E-1
2.166021792E0,-2.014459968E-1,-4.690435901E-2,5.673856139E-1
2.176031792E0,-3.481920362E-1,-7.157295197E-2,4.947113991E-1
2.186041792E0,-5.170134902E-1,-3.971796483E-2,4.391599000E-1
2.196050792E0,-7.122886777E-1,-1.454728656E-3,4.473043978E-1
2.206030792E0,-7.902327180E-1,-1.817048788E-1,5.616686344E-1
2.216039792E0,-8.040372133E-1,-5.400270224E-1,6.931406260E-1
2.226049792E0,-7.520047426E-1,-1.009194970E0,7.744919062E-1
2.236059792E0,-6.339329481E-1,-1.453840137E0,8.341289163E-1
2.246069792E0,-4.057498872E-1,-1.538588524E0,7.604573369E-1
2.256048792E0,-7.869692147E-2,-1.179061770E0,4.964944124E-1
2.266058792E0,2.182966769E-1,-5.206511617E-1,8.354679495E-2
2.276067792E0,4.000099897E-1,2.312159911E-2,-3.319297731E-1
2.286077792E0,4.952574074E-1,2.691015303E-1,-5.457187891E-1
2.296056792E0,4.206130207E-1,2.849052846E-1,-5.396054983E-1
2.306066792E0,2.194201350E-1,1.558760852E-1,-3.946365416E-1
2.316076792E0,-3.143233061E-2,8.233635686E-3,-1.618507057E-1
2.326086792E0,-1.823194325E-1,2.213098109E-2,2.340226062E-2
2.336096792E0,-2.300235778E-1,7.708344609E-2,2.528618090E-2
2.346075792E0,-1.957815588E-1,9.742379189E-2,-1.505937614E-2
2.356085792E0,-1.098301709E-1,7.369769365E-2,-5.353432894E-2
2.366094792E0,-1.718820632E-2,1.207146607E-2,-6.742925197E-2
2.376104792E0,4.749118537E-2,-5.926077068E-2,-5.928237364E-2
2.386083792E0,4.677551985E-2,-1.159350872E-1,-3.645018861E-2
2.396093792E0,1.571160927E-2,-1.230819449E-1,-1.600616612E-2
2.406103792E0,-1.422612835E-2,-7.793509960E-2,-1.677784324E-2
2.416113792E0,-2.974410169E-2,-1.477503683E-2,-3.321247548E-2
2.426092792E0,-3.568550199E-2,3.302851692E-2,-5.317500234E-2
2.436102792E0,-3.758886456E-2,5.664169788E-2,-6.838192046E-2
2.446111792E0,-3.636117280E-2,6.746197492E-2,-8.099178970E-2
2.456121792E0,-3.443837166E-2,7.510977238E-2,-9.296455979E-2
2.466131792E0,-2.758664824E-2,7.656833529E-2,-1.031843051E-1
2.476110792E0,-1.737529039E-2,7.851457596E-2,-1.160582900E-1
2.486120792E0,-6.286283955E-3,6.678059697E-2,-1.286496967E-1
2.496130792E0,8.476950228E-3,5.427811667E-2,-1.361060143E-1
2.506139792E0,2.255213261E-2,5.154148117E-2,-1.367702484E-1
2.516119792E0,3.862244636E-2,3.617610410E-2,-1.369052827E-1
2.526129792E0,5.435814708E-2,4.441509023E-3,-1.398131698E-1
2.536138792E0,5.425161868E-2,-3.189945221E-2,-1.334055960E-1
2.546148792E0,5.379028991E-2,-6.200653315E-2,-1.332198381E-1
2.556158792E0,5.955922976E-2,-6.523295492E-2,-1.355493069E-1
2.566137792E0,7.922102511E-2,-7.183338702E-2,-1.409436613E-1
2.576147792E0,1.029998586E-1,-1.107799858E-1,-1.555473655E-1
2.586157792E0,1.355480850E-1,-1.613791436E-1,-1.739530265E-1
2.596166792E0,1.642436385E-1,-2.080428004E-1,-1.942375302E-1
2.606146792E0,1.841826439E-1,-2.269167304E-1,-2.206943333E-1
2.616155792E0,2.152073979E-1,-2.434517592E-1,-2.475195527E-1
2.626165792E0,2.392897904E-1,-2.811422944E-1,-3.043685257E-1
2.636175792E0,2.518987954E-1,-2.454575598E-1,-3.236170411E-1
2.646166792E0,2.495646626E-1,-2.321275473E-1,-3.251182735E-1
2.656145792E0,2.346080989E-1,-2.355864495E-1,-3.056353927E-1
2.666155792E0,2.154048383E-1,-2.291035205E-1,-2.701261342E-1
2.676164792E0,1.863939613E-1,-2.002207488E-1,-2.268311232E-1
2.686174792E0,1.533133686E-1,-1.395801306E-1,-1.772417128E-1
2.696153792E0,1.144298911E-1,-8.509691805E-2,-1.340018362E-1
2.706163792E0,6.636232883E-2,-6.542792171E-2,-9.265527874E-2
2.716173792E0,2.053119056E-2,-7.447893918E-2,-4.700337350E-2
2.726183792E0,-5.724510178E-3,-8.759244531E-2,3.846774809E-3
2.736193792E0,-1.993833482E-2,-7.407850027E-2,6.383900344E-2
2.746172792E0,-2.948355861E-2,-2.865124121E-2,1.004405841E-1
2.756182792E0,-3.561788425E-2,4.854101688E-2,9.935908020E-2
2.766191792E0,-1.744559035E-2,1.021067947E-1,8.447989821E-2
2.776201792E0,2.935893275E-2,1.005722806E-1,5.982249603E-2
2.786180792E0,8.498308808E-2,1.014579535E-1,9.429152124E-3
2.796190792E0,1.165743098E-1,1.024411917E-1,-7.557255775E-2
2.806200792E0,9.581957012E-2,1.570494324E-1,-1.465581656E-1
2.816210792E0,6.191087514E-2,2.926054001E-1,-1.754502654E-1
2.826219792E0,2.192445286E-2,4.821412265E-1,-1.675083935E-1
2.836199792E0,1.479730196E-2,5.495649576E-1,-1.706442684E-1
2.846208792E0,2.491150796E-2,4.588590264E-1,-1.819985658E-1
2.856218792E0,2.383931726E-2,3.175346553E-1,-1.864497662E-1
2.866228792E0,2.627611160E-2,2.407248318E-1,-1.832244098E-1
2.876207792E0,2.576771379E-2,2.801350951E-1,-1.756756902E-1
2.886217792E0,1.723083854E-2,4.167837501E-1,-1.674725562E-1
2.896227792E0,1.024350151E-2,5.688561201E-1,-1.540164053E-1
2.906236792E0,-1.380130649E-3,6.643216610E-1,-1.284814924E-1
2.916246792E0,-1.492123958E-2,6.623167992E-1,-9.866873175E-2
2.926225792E0,-4.788267612E-2,5.658982396E-1,-7.628759742E-2
2.936235792E0,-6.424380839E-2,4.389264286E-1,-7.354107499E-2
2.946245792E0,-6.151963398E-2,3.509730399E-1,-8.016961813E-2
2.956255792E0,-3.036091477E-2,3.161415458E-1,-8.566558361E-2
2.966234792E0,1.490350068E-2,2.826810777E-1,-8.647385240E-2
2.976244792E0,5.720648542E-2,2.298332751E-1,-7.552586496E-2
2.986254792E0,8.316192776E-2,1.630320251E-1,-4.050096497E-2
2.996263792E0,9.332268685E-2,7.646998018E-2,8.015436120E-3
3.006273792E0,8.835172653E-2,-6.561679766E-4,5.208367109E-2
3.016252792E0,6.843074411E-2,-5.608453974E-2,7.614373416E-2
3.026262792E0,4.675105214E-2,-1.061293706E-1,7.885866612E-2
3.036272792E0,1.671112515E-2,-1.541027725E-1,7.098236680E-2
3.046282792E0,1.633491553E-2,-2.031631172E-1,5.648692325E-2
3.056261792E0,2.847759984E-2,-2.317340374E-1,3.935081512E-2
3.066271792E0,3.422620147E-2,-2.009515017E-1,2.658773586E-2
3.076280792E0,5.527476221E-2,-1.161710918E-1,8.504339494E-3
3.086290792E0,7.313813269E-2,-9.216384962E-3,-3.562006354E-2
3.096300792E0,9.770791978E-2,4.955504835E-2,-8.576259762E-2
3.106279792E0,1.078647524E-1,1.249926835E-1,-9.776637703E-2
3.116289792E0,7.820166647E-2,1.757402867E-1,-8.184519410E-2
3.126299792E0,8.505051956E-3,1.605125815E-1,-5.330352485E-2
3.136308792E0,-9.719687700E-2,1.319051683E-1,-3.416285664E-2
3.146288792E0,-2.308098674E-1,1.351559758E-1,-4.757389426E-2
3.156297792E0,-4.120281339E-1,1.730221361E-1,-1.122010872E-1
3.166307792E0,-6.376572251E-1,2.296828628E-1,-2.035470903E-1
3.176317792E0,-8.730686903E-1,2.816707194E-1,-2.784386575E-1
3.186327792E0,-1.110299826E0,3.344070017E-1,-3.857827783E-1
3.196306792E0,-1.355209708E0,4.230687022E-1,-5.037909150E-1
3.206316792E0,-1.593927383E0,5.856482983E-1,-6.388937235E-1
3.216326792E0,-1.824993372E0,8.206014633E-1,-7.624543309E-1
3.226335792E0,-2.056774139E0,1.100372314E0,-8.658326864E-1
3.236315792E0,-2.248340607E0,1.384537220E0,-9.402083755E-1
3.246324792E0,-2.403433323E0,1.485786557E0,-9.779301286E-1
3.256334792E0,-2.611429930E0,1.499878168E0,-9.460731149E-1
3.266344792E0,-2.869705677E0,1.503479958E0,-8.623812199E-1
3.276354792E0,-3.127363682E0,1.367905617E0,-7.978456020E-1
3.286333792E0,-3.234352827E0,1.276140809E0,-7.058357596E-1
3.296343792E0,-3.167167902E0,1.040693164E0,-6.396650076E-1
3.306352792E0,-3.091710567E0,6.859753132E-1,-5.818737149E-1
3.316362792E0,-3.033200264E0,3.021805286E-1,-5.676234365E-1
3.326341792E0,-2.915282488E0,1.521223933E-1,-6.563870311E-1
3.336351792E0,-2.786324024E0,2.159053683E-1,-8.353937864E-1
3.346361792E0,-2.682161093E0,2.581872344E-1,-1.049445629E0
3.356371792E0,-2.677622795E0,2.561384737E-1,-1.238244653E0
3.366350792E0,-2.832676172E0,3.977142274E-2,-1.407946110E0
3.376360792E0,-2.878328800E0,-2.174710333E-1,-1.520226359E0
3.386370792E0,-2.798260212E0,-5.388338566E-1,-1.599148393E0
3.396379792E0,-2.780358315E0,-1.071846008E0,-1.696380377E0
3.406389792E0,-2.907079220E0,-1.792400718E0,-1.788182974E0
3.416368792E0,-3.101164341E0,-2.301908255E0,-1.827762961E0
3.426378792E0,-3.181865692E0,-2.568872452E0,-1.734153628E0
3.436388792E0,-3.194977283E0,-2.797284603E0,-1.578440428E0
3.446398792E0,-3.122601032E0,-2.715896368E0,-1.392145872E0
3.456377792E0,-3.071440935E0,-2.652208805E0,-1.188498974E0
3.466387792E0,-3.035674095E0,-2.658163786E0,-1.006189466E0
3.476396792E0,-2.995599747E0,-2.605863571E0,-8.499923944E-1
3.486406792E0,-2.912414789E0,-2.494459152E0,-7.059320211E-1
3.496416792E0,-2.745668650E0,-2.274378300E0,-6.071343422E-1
