"Time (s)","X (rad/s)","Y (rad/s)","Z (rad/s)"
4.972370833E-2,1.271645874E-1,-2.434655726E-1,9.300161153E-2
5.967470835E-2,1.341628432E-1,-2.550407350E-1,1.026843339E-1
6.962570833E-2,1.404989362E-1,-2.482201606E-1,1.066862866E-1
7.957670835E-2,1.373681128E-1,-2.320459932E-1,1.043208688E-1
8.952770833E-2,1.329751313E-1,-2.190374285E-1,1.033387184E-1
9.947870835E-2,1.251310557E-1,-2.134559751E-1,9.496147931E-2
1.094297083E-1,1.174555719E-1,-2.038239837E-1,8.943179995E-2
1.193807083E-1,1.071627215E-1,-1.968126744E-1,8.019409329E-2
1.293317083E-1,1.026898175E-1,-1.726490706E-1,7.741101831E-2
1.392827083E-1,9.264171124E-2,-1.310227960E-1,6.716264039E-2
1.492337083E-1,7.764247805E-2,-9.320421517E-2,5.923647434E-2
1.591847083E-1,5.653585494E-2,-5.784755573E-2,5.707798153E-2
1.691357083E-1,3.903472796E-2,-2.947232313E-2,5.213369802E-2
1.790867083E-1,2.452023141E-2,-1.953819953E-2,4.151700437E-2
1.890377083E-1,2.197193168E-2,-1.152362209E-3,3.312340379E-2
1.989887083E-1,3.465124220E-2,2.422995865E-2,2.067046240E-2
2.089402083E-1,5.299407989E-2,4.249154776E-2,1.123676635E-2
2.188912083E-1,6.619404256E-2,5.085973069E-2,5.816434044E-3
2.288422083E-1,7.979683578E-2,4.822462052E-2,5.802763160E-3
2.387932083E-1,7.937125862E-2,2.719603106E-2,4.738830496E-3
2.487452083E-1,6.161934137E-2,-3.527971450E-3,1.054051565E-3
2.586962083E-1,4.027197510E-2,-2.706445754E-2,-6.402267143E-3
2.686472083E-1,1.528656110E-2,-3.422804549E-2,-1.806039177E-2
2.785982083E-1,-1.011253893E-2,-6.167380139E-3,-3.402018175E-2
2.885492083E-1,-4.081037268E-2,3.574126586E-2,-4.568053782E-2
2.985002083E-1,-7.771059871E-2,8.324060589E-2,-4.433484003E-2
3.084512083E-1,-1.102112383E-1,1.195191443E-1,-2.631863207E-2
3.184022083E-1,-1.358321756E-1,1.475553066E-1,2.253625076E-3
3.283532083E-1,-1.513198465E-1,1.640881747E-1,2.766815014E-2
3.383042083E-1,-1.500013173E-1,1.681891829E-1,4.447935522E-2
3.482552083E-1,-1.513143182E-1,1.618159413E-1,4.940721765E-2
3.582062083E-1,-1.502439976E-1,1.427839249E-1,4.959097505E-2
3.681572083E-1,-1.457898468E-1,9.862340242E-2,5.195407942E-2
3.781082083E-1,-1.486351639E-1,4.810403287E-2,5.466837436E-2
3.880592083E-1,-1.430095732E-1,2.532514045E-3,5.523607135E-2
3.980102083E-1,-1.376992315E-1,-1.969635859E-2,4.690543562E-2
4.079612083E-1,-1.390449256E-1,-2.981157787E-2,3.105963022E-2
4.179122083E-1,-1.356153190E-1,-2.387805469E-2,1.182601321E-2
4.278632083E-1,-1.395119578E-1,-1.573951542E-2,-1.097936369E-2
4.378142083E-1,-1.340530068E-1,-5.128416698E-3,-2.128632925E-2
4.477652083E-1,-1.186975986E-1,7.698101923E-3,-3.740479425E-2
4.577162083E-1,-9.771482646E-2,1.278900076E-2,-4.632744938E-2
4.676672083E-1,-7.192637771E-2,2.577869594E-2,-4.878617823E-2
4.776182083E-1,-5.405364186E-2,4.335210100E-2,-5.580946803E-2
4.875692083E-1,-3.759876639E-2,6.273165345E-2,-5.318865180E-2
4.975202083E-1,-2.619245090E-2,7.618993521E-2,-5.009592324E-2
5.074712083E-1,-1.464246679E-2,8.618270606E-2,-4.830168188E-2
5.174222083E-1,-9.072138928E-4,1.065351218E-1,-4.937440529E-2
5.273732083E-1,1.206980646E-2,1.252035946E-1,-5.515940487E-2
5.373242083E-1,2.085530944E-2,1.328346282E-1,-6.063513085E-2
5.472752083E-1,2.833484486E-2,1.328811198E-1,-6.361673772E-2
5.572262083E-1,2.797664888E-2,1.291516274E-1,-6.784983724E-2
5.671772083E-1,2.364498749E-2,1.163314208E-1,-7.041428238E-2
5.771282083E-1,2.505859360E-2,1.003825516E-1,-6.723500043E-2
5.870792083E-1,2.534759045E-2,8.676330000E-2,-7.015202940E-2
5.970302083E-1,2.845523320E-2,7.902574539E-2,-7.491509616E-2
6.069812083E-1,2.419721894E-2,7.416007668E-2,-7.521139830E-2
6.169322083E-1,2.154098265E-2,7.146788388E-2,-7.501219213E-2
6.268832083E-1,1.767261326E-2,6.834286451E-2,-7.373648882E-2
6.368342083E-1,1.378679555E-2,6.126445904E-2,-7.067944109E-2
6.467852083E-1,1.607898995E-2,5.911915004E-2,-6.558977067E-2
6.567362083E-1,1.100380532E-2,6.859361380E-2,-6.686675549E-2
6.666872083E-1,4.506599158E-3,7.933831960E-2,-6.510324776E-2
6.766382083E-1,-5.178784952E-3,8.587718010E-2,-6.177216768E-2
6.865892083E-1,-1.600576937E-2,9.144137800E-2,-6.148601323E-2
6.965412083E-1,-2.354970574E-2,8.880617470E-2,-6.185432523E-2
7.064922083E-1,-2.880185284E-2,9.135289490E-2,-5.964864418E-2
7.164432083E-1,-3.817644715E-2,9.364560992E-2,-6.270169467E-2
7.263942083E-1,-4.099301621E-2,9.899257123E-2,-6.025328487E-2
7.363452083E-1,-4.318719357E-2,9.890175611E-2,-5.900772661E-2
7.462962083E-1,-3.966422006E-2,9.774187952E-2,-5.450251698E-2
7.562472083E-1,-4.072948173E-2,9.176441282E-2,-5.671880022E-2
7.661982083E-1,-4.542360827E-2,9.001203626E-2,-5.225744471E-2
7.761492083E-1,-4.744228348E-2,8.206383139E-2,-4.762594029E-2
7.861002083E-1,-5.134373903E-2,8.020671457E-2,-4.571470991E-2
7.960512083E-1,-4.698813707E-2,8.093801886E-2,-4.657357931E-2
8.060022083E-1,-4.898462072E-2,8.233729750E-2,-4.590779915E-2
8.159532083E-1,-5.098704994E-2,8.385742456E-2,-4.451869428E-2
8.259042083E-1,-4.795942456E-2,8.345256746E-2,-4.156238586E-2
8.358552083E-1,-4.607124254E-2,8.114440739E-2,-4.130033404E-2
8.458062083E-1,-4.770324379E-2,7.487864792E-2,-3.779825941E-2
8.557572083E-1,-4.416470230E-2,7.656469196E-2,-4.201457649E-2
8.657082083E-1,-4.562215880E-2,6.808256358E-2,-4.168542475E-2
8.756592083E-1,-4.222343490E-2,5.962463096E-2,-3.789681196E-2
8.856102083E-1,-4.152188450E-2,5.645577610E-2,-3.377110139E-2
8.955612083E-1,-4.048058763E-2,5.280431733E-2,-3.129170090E-2
9.055122083E-1,-4.128697887E-2,5.055088922E-2,-2.560416237E-2
9.154632083E-1,-4.323534667E-2,5.374801531E-2,-2.304592915E-2
9.254142083E-1,-3.973178193E-2,5.465317518E-2,-2.358040214E-2
9.353652083E-1,-3.720683977E-2,5.612590164E-2,-2.071750537E-2
9.453162083E-1,-3.750129789E-2,5.190510675E-2,-1.758458465E-2
9.552672083E-1,-3.815217316E-2,4.619555548E-2,-1.427107863E-2
9.652182083E-1,-4.352067411E-2,4.948078096E-2,-1.687711664E-2
9.751692083E-1,-4.406182840E-2,4.908370599E-2,-1.662172005E-2
9.851202083E-1,-4.754250869E-2,5.040360242E-2,-1.656174660E-2
9.950712083E-1,-5.223340169E-2,4.751940072E-2,-1.535986178E-2
1.005022208E0,-5.442648381E-2,4.761661962E-2,-1.363351941E-2
1.014973208E0,-5.187224597E-2,4.708664864E-2,-9.730389342E-3
1.024924208E0,-4.962063208E-2,5.609048158E-2,-7.142307237E-3
1.034875208E0,-4.326020554E-2,6.840254366E-2,-7.382790558E-3
1.044826208E0,-4.611404985E-2,8.571282774E-2,-3.881266341E-3
1.054777208E0,-5.886846036E-2,1.112900898E-1,2.897765953E-4
1.064728208E0,-6.509065628E-2,1.155925617E-1,-1.457962673E-3
1.074679208E0,-6.901216507E-2,9.897710383E-2,1.451274613E-3
1.084630208E0,-6.442391127E-2,8.239553869E-2,-4.265432712E-3
1.094581208E0,-5.885018408E-2,8.035156131E-2,-9.879643098E-3
1.104532208E0,-5.525917932E-2,6.632256508E-2,-4.759981763E-3
1.114483208E0,-4.702708125E-2,4.577042162E-2,-7.037250791E-3
1.124434208E0,-3.633890674E-2,4.307096079E-2,-8.007740602E-3
1.134385208E0,-2.338955179E-2,3.829671070E-2,-1.542491093E-2
1.144336208E0,-8.776660077E-3,3.496835753E-2,-1.509019919E-2
1.154287208E0,-2.366697416E-3,3.926084191E-2,-1.621671580E-2
1.164238208E0,5.610170774E-3,4.292409867E-2,-1.980512030E-2
1.174189208E0,3.103070660E-3,4.780487344E-2,-2.859008871E-2
1.184140208E0,4.057211801E-3,4.888901487E-2,-2.828735299E-2
1.194091208E0,2.109375549E-3,5.200917274E-2,-3.086662479E-2
1.204043208E0,5.742678884E-3,5.245202780E-2,-3.171801567E-2
1.213994542E0,1.216302812E-2,4.396985844E-2,-2.576132119E-2
1.223945542E0,1.465168130E-2,3.663056344E-2,-1.917494088E-2
1.233896542E0,1.875374839E-2,3.493172675E-2,-1.441693865E-2
1.243847542E0,2.043253556E-2,3.802215680E-2,-1.030340791E-2
1.253798542E0,2.527016774E-2,4.818877578E-2,-8.774220943E-3
1.263749542E0,2.862591855E-2,5.122819543E-2,-7.245441433E-3
1.273700542E0,2.748448774E-2,5.531374738E-2,-6.081373431E-3
1.283651542E0,2.564041689E-2,5.941097438E-2,-8.466637693E-3
1.293602542E0,1.657501608E-2,6.136147678E-2,-1.188187487E-2
1.303553542E0,8.745499887E-3,5.490539223E-2,-9.302049875E-3
1.313504542E0,1.572009176E-3,5.022728443E-2,-6.788025610E-3
1.323455542E0,-8.264286444E-3,5.523553118E-2,-1.933559775E-3
1.333406542E0,-1.232880354E-2,5.836021900E-2,-8.555121021E-4
1.343357542E0,-1.751093194E-2,7.007686049E-2,6.915670820E-4
1.353308542E0,-2.566393279E-2,6.715110689E-2,2.737940056E-3
1.363259542E0,-2.486230060E-2,5.273928866E-2,7.645073812E-3
1.373210542E0,-2.696566656E-2,3.972495347E-2,9.540978819E-3
1.383161542E0,-2.954416722E-2,2.198828384E-2,1.428319048E-2
1.393112542E0,-3.203874826E-2,1.371810306E-2,1.608615182E-2
1.403063542E0,-3.469243273E-2,2.765157446E-2,1.502092183E-2
1.413014542E0,-4.516478255E-2,6.596194953E-2,1.585342735E-2
1.422965542E0,-5.407789722E-2,9.771905839E-2,1.522584260E-2
1.432916542E0,-6.193874776E-2,1.218954995E-1,1.549855061E-2
1.442867542E0,-7.210452110E-2,1.134502441E-1,2.281085774E-2
1.452818542E0,-7.016201317E-2,8.170376718E-2,2.699681558E-2
1.462769542E0,-5.940007418E-2,6.027987227E-2,2.976619452E-2
1.472720542E0,-4.129137844E-2,3.898044303E-2,2.779013105E-2
1.482671542E0,-2.714237198E-2,3.049290180E-2,2.972636372E-2
1.492622542E0,-1.173571683E-2,2.136997506E-2,2.820783108E-2
1.502573542E0,4.426888190E-3,1.551509555E-2,2.597463317E-2
1.512524542E0,1.010581292E-2,1.022286154E-2,2.191384509E-2
1.522475542E0,1.344639342E-2,6.984410807E-3,2.337621525E-2
1.532426542E0,1.588185504E-2,-3.795532510E-3,2.569556236E-2
1.542377542E0,2.063728310E-2,-8.658152074E-3,2.796161734E-2
1.552328542E0,3.061268479E-2,-3.600009717E-3,3.515401855E-2
1.562279542E0,3.154725954E-2,2.222094918E-3,4.285161197E-2
1.572230542E0,3.465676680E-2,7.263192907E-3,4.799204320E-2
1.582181542E0,3.441319615E-2,7.954333909E-3,5.453120172E-2
1.592132542E0,3.845107928E-2,1.597204618E-2,6.463444233E-2
1.602083542E0,3.781494871E-2,2.263918892E-2,6.707156450E-2
1.612034542E0,3.446416184E-2,3.641651943E-2,7.148415595E-2
1.621985542E0,2.680322155E-2,4.684967548E-2,7.682781667E-2
1.631936542E0,1.833357103E-2,5.685623735E-2,7.497878373E-2
1.641887542E0,7.995170541E-3,7.923770696E-2,8.165170252E-2
1.651838542E0,-1.649200916E-3,9.815201163E-2,8.394788206E-2
1.661789542E0,-1.238354668E-2,1.114242971E-1,9.329127520E-2
1.671740542E0,-1.899298094E-2,1.240796447E-1,1.017928794E-1
1.681691542E0,-3.292965516E-2,1.349269152E-1,1.057367921E-1
1.691642542E0,-4.746438935E-2,1.532087177E-1,1.064739525E-1
1.701593542E0,-7.562163472E-2,1.745934188E-1,1.052736342E-1
1.711544542E0,-1.041864380E-1,1.972396076E-1,1.059375554E-1
1.721495542E0,-1.328271478E-1,2.201635391E-1,9.425197542E-2
1.731446542E0,-1.437815279E-1,2.363118827E-1,8.423928916E-2
1.741397542E0,-1.542147398E-1,2.361536920E-1,7.763039321E-2
1.751348542E0,-1.552160829E-1,2.333203554E-1,7.803972065E-2
1.761299542E0,-1.517388225E-1,2.515629828E-1,8.162398636E-2
1.771250542E0,-1.446292549E-1,2.706735730E-1,9.244680405E-2
1.781201542E0,-1.257236749E-1,2.845091224E-1,9.942879528E-2
1.791152542E0,-1.052157283E-1,2.902389169E-1,1.100867614E-1
1.801103542E0,-9.244459122E-2,2.908901870E-1,1.175840199E-1
1.811054542E0,-7.826805115E-2,2.819043994E-1,1.256834865E-1
1.821005542E0,-7.466519624E-2,2.768544555E-1,1.270799339E-1
1.830956542E0,-7.600982487E-2,2.922842801E-1,1.199426651E-1
1.840907542E0,-7.085795701E-2,2.888807356E-1,1.026127636E-1
1.850858542E0,-7.310274243E-2,2.894309461E-1,7.949997485E-2
1.860809542E0,-7.371713221E-2,2.865696549E-1,5.862159654E-2
1.870760542E0,-8.143310994E-2,2.760259211E-1,4.282345995E-2
1.880711542E0,-8.872172982E-2,2.749812901E-1,3.151073307E-2
1.890663542E0,-9.673038125E-2,2.695678771E-1,2.283255570E-2
1.900614542E0,-1.104197726E-1,2.710081339E-1,1.112386305E-2
1.910565542E0,-1.302480698E-1,2.748457491E-1,-7.884449326E-3
1.920516542E0,-1.607654095E-1,2.830307484E-1,-2.366593480E-2
1.930467542E0,-2.006552964E-1,2.897957265E-1,-3.413215652E-2
1.940418542E0,-2.240026295E-1,2.881685495E-1,-4.166857153E-2
1.950369542E0,-2.405349910E-1,2.785793245E-1,-4.609634355E-2
1.960320542E0,-2.614473701E-1,2.585857809E-1,-4.647036642E-2
1.970271542E0,-2.880811095E-1,2.174554169E-1,-3.861191124E-2
1.980222542E0,-3.210610151E-1,1.789468378E-1,-2.876821160E-2
1.990173542E0,-3.482201993E-1,1.698430926E-1,-1.994009875E-2
2.000124542E0,-3.721816838E-1,1.915368438E-1,-1.777327992E-2
2.010075542E0,-3.866018951E-1,1.979934126E-1,-1.287013385E-2
2.020026542E0,-3.903987110E-1,1.306058615E-1,-4.846483469E-3
2.029977542E0,-3.761263192E-1,5.019383878E-2,7.645340171E-3
2.039928542E0,-3.516923189E-1,2.855421044E-4,3.528148681E-2
2.049879542E0,-3.388172686E-1,-4.233675078E-2,6.949698180E-2
2.059830542E0,-3.281698823E-1,-8.201981336E-2,1.169048622E-1
2.069781542E0,-3.233519793E-1,-1.332763433E-1,1.676394194E-1
2.079732542E0,-3.172571957E-1,-1.822112054E-1,2.202599794E-1
2.089683542E0,-3.044258356E-1,-2.628889978E-1,2.616564035E-1
2.099634542E0,-2.837615013E-1,-3.295520246E-1,2.855789661E-1
2.109585542E0,-2.477803528E-1,-3.810181320E-1,2.998710871E-1
2.119536542E0,-2.117659003E-1,-3.793216050E-1,2.947228253E-1
2.129487542E0,-1.788028926E-1,-3.496625125E-1,2.725450993E-1
2.139438542E0,-1.468713582E-1,-3.008118868E-1,2.567316890E-1
2.149389542E0,-1.140401736E-1,-2.751187682E-1,2.541511059E-1
2.159340542E0,-8.276367933E-2,-2.889318764E-1,2.547627985E-1
2.169291542E0,-5.622740090E-2,-2.948728800E-1,2.557321787E-1
2.179242542E0,-3.408801183E-2,-3.088802993E-1,2.604598403E-1
2.189193542E0,-2.234062180E-3,-3.623161316E-1,2.733665407E-1
2.199144542E0,3.398292884E-2,-4.384739995E-1,2.820776701E-1
2.209095542E0,5.162317306E-2,-4.813871086E-1,2.686444223E-1
2.219046167E0,7.029759139E-2,-5.231207609E-1,2.530074120E-1
2.228997167E0,8.364828676E-2,-4.995997250E-1,2.305960953E-1
2.238948167E0,1.019358784E-1,-4.672635496E-1,2.298925221E-1
2.248899167E0,1.246880665E-1,-3.948548734E-1,2.007980198E-1
2.258850167E0,1.325825155E-1,-3.416393995E-1,1.689096689E-1
2.268801167E0,1.112226322E-1,-3.544366956E-1,1.454954296E-1
2.278752167E0,8.850674331E-2,-3.778222799E-1,9.479333460E-2
2.288703167E0,8.715412021E-2,-4.596047699E-1,7.242172211E-2
2.298654167E0,8.612315357E-2,-5.534167886E-1,5.909003690E-2
2.308605167E0,9.603676945E-2,-6.296974421E-1,6.829632074E-2
2.318556167E0,1.322921664E-1,-6.571384072E-1,7.149311900E-2
2.328507167E0,1.571871340E-1,-6.327869892E-1,9.195738286E-2
2.338458167E0,1.656890064E-1,-5.949288607E-1,7.738110423E-2
2.348409167E0,1.646314710E-1,-4.800653756E-1,4.741893709E-2
2.358360167E0,1.364948750E-1,-3.777264655E-1,1.472323015E-2
2.368311167E0,9.434263408E-2,-2.863866985E-1,-1.881662011E-2
2.378262167E0,4.769809917E-2,-1.973630041E-1,-5.149571225E-2
2.388213167E0,-6.056210957E-3,-1.395497769E-1,-7.812466472E-2
2.398164167E0,-4.268547893E-2,-1.206002533E-1,-9.508894384E-2
2.408115167E0,-8.061315119E-2,-1.293849647E-1,-1.010901108E-1
2.418066167E0,-1.173378378E-1,-1.532761604E-1,-1.083437726E-1
2.428017167E0,-1.391027868E-1,-1.676633656E-1,-1.148765087E-1
2.437968167E0,-1.415670812E-1,-1.718370914E-1,-1.314774007E-1
2.447919167E0,-1.433506012E-1,-1.633570641E-1,-1.562035233E-1
2.457870167E0,-1.426050514E-1,-1.322258413E-1,-1.764030159E-1
2.467821167E0,-1.299789995E-1,-1.114955246E-1,-1.830286980E-1
2.477772167E0,-1.137016639E-1,-1.062768847E-1,-1.930972487E-1
2.487723167E0,-1.175083891E-1,-9.864479303E-2,-1.967146099E-1
2.497674167E0,-1.320386380E-1,-7.783966511E-2,-2.065254301E-1
2.507625167E0,-1.513295025E-1,-6.543972343E-2,-2.295553833E-1
2.517576167E0,-1.780908257E-1,-4.659453779E-2,-2.608952820E-1
2.527527167E0,-1.892582625E-1,-4.072839394E-2,-2.897551656E-1
2.537478167E0,-1.699661911E-1,-4.260665923E-2,-3.227932751E-1
2.547429167E0,-1.322909892E-1,-5.425479263E-2,-3.504041433E-1
2.557380167E0,-7.210241258E-2,-5.372186005E-2,-3.739008307E-1
2.567331167E0,-2.966223517E-3,-4.284098372E-2,-3.833819330E-1
2.577282167E0,6.161151454E-2,-2.609671839E-2,-3.867954314E-1
2.587233167E0,1.244426817E-1,-2.941022441E-2,-3.777430654E-1
2.597184167E0,1.612541527E-1,-6.132025272E-2,-3.684452474E-1
2.607135167E0,1.589574516E-1,-1.780444682E-1,-3.524614871E-1
2.617086167E0,1.330880076E-1,-4.011144638E-1,-3.430010974E-1
2.627037167E0,1.191372946E-1,-5.932370424E-1,-3.424655497E-1
2.636988167E0,1.339206547E-1,-6.296671033E-1,-3.456907868E-1
2.646939167E0,1.432379931E-1,-5.617842078E-1,-3.492724895E-1
2.656890167E0,1.398916245E-1,-4.429369867E-1,-3.393579423E-1
2.666841167E0,8.243312687E-2,-3.035703003E-1,-3.466169238E-1
2.676792167E0,-3.794526681E-2,-1.802778095E-1,-3.733988106E-1
2.686743167E0,-1.972337216E-1,-6.891959906E-2,-3.754515648E-1
2.696694167E0,-3.674227893E-1,-2.348927967E-2,-3.298735023E-1
2.706645167E0,-5.710563064E-1,-5.183170363E-2,-2.481424212E-1
2.716596167E0,-8.353974223E-1,-1.090185493E-1,-1.609280854E-1
2.726547167E0,-1.165530801E0,-1.415655613E-1,-8.787170798E-2
2.736498167E0,-1.511001825E0,-1.550522596E-1,-2.329348400E-2
2.746449167E0,-1.813706517E0,-2.113251239E-1,4.862544686E-2
2.756400167E0,-2.025409698E0,-3.397292197E-1,1.718875766E-1
2.766351167E0,-2.130880833E0,-4.897144735E-1,3.318905532E-1
2.776302167E0,-2.206769228E0,-5.926727653E-1,4.994457960E-1
2.786253167E0,-2.343986034E0,-6.309421062E-1,6.276019216E-1
2.796204167E0,-2.511424303E0,-4.548069835E-1,6.125851870E-1
2.806155167E0,-2.682438612E0,-1.874416880E-2,5.336185098E-1
2.816106167E0,-2.948050499E0,7.466492057E-2,4.173958898E-1
2.826057167E0,-3.267843723E0,-3.271639720E-2,2.845592797E-1
2.836008167E0,-3.547566891E0,-1.191097200E-1,1.878822297E-1
2.845959167E0,-3.673108816E0,-9.450130910E-2,1.718675792E-1
2.855910167E0,-3.500015736E0,5.994223058E-2,2.905442119E-1
2.865861167E0,-3.078013182E0,2.471515238E-1,5.647638440E-1
2.875813167E0,-2.623677492E0,3.675294518E-1,9.138045311E-1
2.885764167E0,-2.341030598E0,6.454654932E-1,1.168220043E0
2.895715167E0,-2.374396324E0,1.096552372E0,1.273813486E0
2.905666167E0,-2.703413725E0,1.784430385E0,1.242887855E0
2.915617167E0,-3.179841995E0,2.345070362E0,1.078468919E0
2.925567167E0,-3.486429214E0,2.719455719E0,9.235515594E-1
2.935519167E0,-3.547024012E0,2.813035488E0,8.457506895E-1
2.945470167E0,-3.530579567E0,2.608428955E0,8.499915004E-1
2.955421167E0,-3.464822531E0,2.243486404E0,9.394921660E-1
2.965372167E0,-3.370718479E0,2.089408875E0,9.903585315E-1
2.975323167E0,-3.308142185E0,2.069718599E0,9.454839230E-1
2.985274167E0,-3.295146942E0,2.079773188E0,8.021307588E-1
2.995225167E0,-3.222094536E0,2.056235313E0,6.454438567E-1
3.005176167E0,-3.025968075E0,1.987616301E0,5.279251933E-1
3.015127167E0,-2.742617607E0,1.842095971E0,4.185726047E-1
3.025078167E0,-2.447978497E0,1.612788439E0,3.130017221E-1
3.035029167E0,-2.174621582E0,1.307335854E0,2.007571310E-1
3.044980167E0,-1.920078516E0,1.152508736E0,4.425272718E-2
3.054931167E0,-1.644079447E0,1.053936720E0,-1.037628278E-1
3.064882167E0,-1.341722250E0,9.043402672E-1,-2.073318362E-1
3.074833167E0,-1.037545919E0,7.795314193E-1,-2.744333446E-1
3.084784167E0,-7.339642644E-1,6.726472974E-1,-2.992289662E-1
3.094735167E0,-4.460404515E-1,5.080994964E-1,-2.700980306E-1
3.104686167E0,-1.980628818E-1,3.245344162E-1,-2.273934335E-1
3.114637167E0,-5.471783690E-3,2.059400380E-1,-1.807389557E-1
3.124588167E0,1.428260654E-1,1.149478182E-1,-1.161626279E-1
3.134539167E0,2.698475122E-1,7.578938268E-3,-1.838062517E-2
3.144490167E0,3.864308298E-1,-1.088036001E-1,1.226622537E-1
3.154441167E0,4.949199259E-1,-1.723360270E-1,2.763636112E-1
3.164392167E0,5.972414613E-1,-1.569783837E-1,4.233905971E-1
3.174343167E0,6.985316277E-1,-1.038026512E-1,5.476448536E-1
3.184294167E0,7.776725292E-1,-7.393876463E-2,6.488878727E-1
3.194245167E0,8.262909651E-1,-6.477706134E-2,7.132955194E-1
3.204196167E0,8.467025161E-1,-6.134371832E-2,7.571303248E-1
3.214147042E0,8.349976540E-1,-4.081671312E-2,7.812535763E-1
3.224098042E0,8.188290596E-1,1.651768200E-2,8.111307621E-1
3.234049042E0,8.260791302E-1,6.970853359E-2,8.525354266E-1
3.244000042E0,8.715422153E-1,1.561105251E-1,9.045946598E-1
3.253951042E0,9.577791691E-1,2.462895960E-1,9.608423710E-1
3.263902042E0,1.087303400E0,3.249958456E-1,1.021619320E0
3.273853042E0,1.274671316E0,4.183372855E-1,1.066954970E0
3.283804042E0,1.486468792E0,4.863664210E-1,1.080879331E0
3.293755042E0,1.638474941E0,4.448467493E-1,1.039471984E0
3.303706042E0,1.605849028E0,1.799402535E-1,8.940408230E-1
3.313657042E0,1.163850188E0,-3.183877468E-1,6.331319213E-1
