"Time (s)","X (rad/s)","Y (rad/s)","Z (rad/s)"
8.346625022E-3,3.297671676E-1,1.542308927E-1,9.596457332E-2
1.832762500E-2,3.718554974E-1,2.151477039E-1,1.392442137E-1
2.830862504E-2,3.811746240E-1,2.477453500E-1,2.247041464E-1
3.828962502E-2,3.742583990E-1,2.783365548E-1,3.064813018E-1
4.827062500E-2,3.517856896E-1,3.081083894E-1,3.706821799E-1
5.825162504E-2,3.158977330E-1,3.400972188E-1,4.183775485E-1
6.823262502E-2,2.581022978E-1,3.612788618E-1,4.391667843E-1
7.821362501E-2,1.837516427E-1,3.756801784E-1,4.255487323E-1
8.819462504E-2,1.010862216E-1,4.042184055E-1,3.774986863E-1
9.817562503E-2,3.976534680E-2,4.485962689E-1,3.212505579E-1
1.081566250E-1,6.726022810E-3,4.731054604E-1,2.953872383E-1
1.181376250E-1,7.863459177E-3,4.942432344E-1,3.161625564E-1
1.281186250E-1,3.241052851E-2,5.128960609E-1,3.592064679E-1
1.380996250E-1,8.789002895E-2,5.616481900E-1,4.097396731E-1
1.480806250E-1,1.529708505E-1,6.403322816E-1,4.721830487E-1
1.580616250E-1,2.214529812E-1,6.943920851E-1,5.603690743E-1
1.680426250E-1,2.720095217E-1,7.464976311E-1,6.635874510E-1
1.780236250E-1,3.152326345E-1,8.315432668E-1,7.602381110E-1
1.880046250E-1,3.490800560E-1,9.812909365E-1,8.559893966E-1
1.979856250E-1,3.775239587E-1,1.222153306E0,9.813526869E-1
2.079666251E-1,4.057523608E-1,1.490699887E0,1.148885608E0
2.179476250E-1,4.682429135E-1,1.796719551E0,1.370985508E0
2.279286250E-1,5.730304718E-1,2.135847330E0,1.642656565E0
2.379096251E-1,6.965265274E-1,2.512695551E0,1.955992460E0
2.478906250E-1,8.468192816E-1,2.863914251E0,2.312800884E0
2.578716250E-1,1.033859491E0,3.176713943E0,2.645968437E0
2.678526251E-1,1.278189421E0,3.461380959E0,2.953037977E0
2.778336250E-1,1.552572250E0,3.696203709E0,3.256867886E0
2.878146250E-1,1.793408751E0,3.854990005E0,3.526809216E0
2.977956251E-1,1.994961619E0,3.913026571E0,3.762155056E0
3.077766250E-1,2.188648224E0,3.896519661E0,3.926478148E0
3.177586250E-1,2.376985550E0,3.696132660E0,4.031614780E0
3.277386250E-1,2.502696514E0,3.337646723E0,4.062798977E0
3.377196250E-1,2.549269915E0,3.089226961E0,3.963586092E0
3.477016250E-1,2.478154421E0,3.033332348E0,3.728959084E0
3.576826250E-1,2.352757454E0,3.041216373E0,3.444833279E0
3.676636250E-1,2.219717741E0,2.952137232E0,3.172187328E0
3.776446250E-1,2.149742126E0,2.796500921E0,2.869929552E0
3.876256250E-1,2.145186424E0,2.553380966E0,2.543172836E0
3.976066250E-1,2.175582886E0,2.236348629E0,2.213237762E0
4.075876250E-1,2.210811853E0,1.879649162E0,1.942685962E0
4.175686250E-1,2.205785751E0,1.510902286E0,1.737622023E0
4.275496250E-1,2.147403955E0,1.192103624E0,1.577407837E0
4.375306250E-1,2.029108524E0,9.750575423E-1,1.371445894E0
4.475116250E-1,1.896308303E0,8.388308287E-1,1.094218612E0
4.574926250E-1,1.762993336E0,7.399109006E-1,7.787621617E-1
4.674736250E-1,1.606880307E0,6.739284992E-1,4.661730528E-1
4.774546250E-1,1.449273348E0,5.721094608E-1,2.557401657E-1
4.874356251E-1,1.332748532E0,4.692209065E-1,1.519105732E-1
4.974166250E-1,1.253506660E0,4.249487817E-1,1.380938292E-1
5.073976250E-1,1.187371492E0,3.836369812E-1,9.838606417E-2
5.173786251E-1,1.046150684E0,5.336310267E-1,1.532029808E-1
5.273596250E-1,9.049692154E-1,5.156025290E-1,2.682949901E-1
5.373406250E-1,7.704465389E-1,3.881364167E-1,2.145619690E-1
5.473216251E-1,6.076681614E-1,3.962047100E-1,1.194906328E-2
5.573026250E-1,4.624771476E-1,4.967467785E-1,-2.478108853E-1
5.672836250E-1,3.037312627E-1,5.421786308E-1,-4.609131813E-1
5.772646250E-1,1.131919473E-1,7.368738651E-1,-5.629354119E-1
5.872456250E-1,-4.614661261E-2,5.518703461E-1,-7.204376459E-1
5.972266250E-1,-2.062803656E-1,4.891116619E-1,-8.546990156E-1
6.072076250E-1,-4.223273993E-1,7.447792888E-1,-9.282116294E-1
6.171886250E-1,-8.387379050E-1,1.154299617E0,-1.031084180E0
6.271696250E-1,-1.021903396E0,1.200082541E0,-1.158808708E0
6.371506250E-1,-1.063164830E0,5.991507173E-1,-1.275555611E0
6.471316250E-1,-8.242377043E-1,3.138128668E-2,-1.423828602E0
6.571126250E-1,-4.314957261E-1,-5.173916370E-2,-1.391406178E0
6.670936250E-1,-8.889062703E-2,1.642850637E-1,-1.176931739E0
6.770746250E-1,2.158623487E-1,4.787897468E-1,-8.281645179E-1
6.870556250E-1,5.998324156E-1,1.684247255E-1,-3.787645400E-1
6.970366250E-1,9.657531381E-1,3.352310881E-2,9.134983644E-3
7.070176250E-1,1.114957690E0,1.160883978E-1,2.444252074E-1
7.169986250E-1,1.076845765E0,2.472450882E-1,3.654464483E-1
7.269796250E-1,9.037562609E-1,3.536455035E-1,3.343352377E-1
7.369606250E-1,6.180451512E-1,6.712596416E-1,1.738672405E-1
7.469416250E-1,3.094519079E-1,9.084701538E-1,-1.186910942E-1
7.569226250E-1,1.243275497E-2,8.598496318E-1,-6.172375083E-1
7.669046251E-1,-3.449097872E-1,8.624801040E-1,-1.044696808E0
7.768856250E-1,-7.344929576E-1,7.286046147E-1,-1.518123746E0
7.868666250E-1,-9.842034578E-1,5.301194787E-1,-1.974810362E0
7.968476251E-1,-9.576325417E-1,2.704596817E-1,-2.318116665E0
8.068286250E-1,-8.655644655E-1,1.239561010E-2,-2.357877731E0
8.168096250E-1,-7.027851343E-1,-4.006919637E-2,-2.165515423E0
8.267906250E-1,-4.797843993E-1,2.624122202E-1,-1.900307536E0
8.367716250E-1,-1.316325366E-1,3.341748118E-1,-1.523534775E0
8.467526250E-1,4.042002857E-1,1.593580693E-1,-1.222131729E0
8.567336250E-1,8.876804113E-1,-7.275613397E-2,-1.155257821E0
8.667146250E-1,1.258594155E0,-3.023423254E-1,-1.183532953E0
8.766956250E-1,1.563935399E0,-3.364507556E-1,-1.085168362E0
8.866766250E-1,1.761739373E0,-1.921676546E-1,-8.522154093E-1
8.966576250E-1,1.703349113E0,-1.054415479E-1,-7.063910961E-1
9.066386250E-1,1.406078935E0,9.164759517E-2,-7.492249608E-1
9.166196250E-1,1.007180214E0,2.891294956E-1,-8.560912013E-1
9.266006250E-1,6.683477163E-1,3.974730074E-1,-8.181416988E-1
9.365816250E-1,5.030069351E-1,2.889196277E-1,-6.267583966E-1
9.465622500E-1,5.564908385E-1,7.882770151E-2,-3.105744421E-1
9.565432500E-1,7.798157930E-1,-7.773500681E-2,1.999680698E-2
9.665242500E-1,9.735354185E-1,-2.340359390E-1,4.272852242E-1
9.765052500E-1,9.496119618E-1,-2.615439892E-1,7.477627993E-1
9.864862500E-1,8.414920568E-1,-4.226517081E-1,8.534008265E-1
9.964672501E-1,7.845017314E-1,-6.695581675E-1,8.304302096E-1
1.006448250E0,7.935246229E-1,-9.060668349E-1,8.094615936E-1
1.016429250E0,8.936659098E-1,-1.015970707E0,8.671738505E-1
1.026410250E0,1.083908916E0,-1.122829914E0,1.046614528E0
1.036391250E0,1.321870327E0,-1.213637948E0,1.331663847E0
1.046372250E0,1.510884643E0,-1.090377450E0,1.591791630E0
1.056353250E0,1.657822967E0,-1.038329363E0,1.846746325E0
1.066334250E0,1.686727405E0,-9.341818094E-1,2.165587902E0
1.076315250E0,1.474384189E0,-5.099168420E-1,2.444095850E0
1.086296250E0,1.080311775E0,-1.414900571E-1,2.570469856E0
1.096277250E0,6.586796045E-1,3.909755126E-2,2.561312437E0
1.106258250E0,3.310525715E-1,1.566107757E-2,2.503640175E0
1.116239250E0,5.396558717E-2,-5.710500479E-2,2.450289249E0
1.126220250E0,-2.448810041E-1,1.324013323E-1,2.403316736E0
1.136201250E0,-5.201927423E-1,4.253493249E-1,2.379569054E0
1.146182250E0,-7.619649172E-1,9.546473026E-1,2.302922249E0
1.156163250E0,-7.580742836E-1,1.358343840E0,2.127035856E0
1.166144250E0,-5.526746511E-1,1.476372719E0,1.956606269E0
1.176125250E0,-3.708372712E-1,1.452478886E0,1.798765182E0
1.186106250E0,-3.103074431E-1,1.404860139E0,1.657663107E0
1.196087250E0,-2.897939384E-1,1.525408149E0,1.535404086E0
1.206068250E0,-2.859094739E-1,1.580982208E0,1.432855725E0
1.216049250E0,-3.024508953E-1,1.661247492E0,1.341888428E0
1.226030250E0,-3.301382065E-1,1.787878513E0,1.233600616E0
1.236011250E0,-3.565160334E-1,1.792646646E0,1.122065544E0
1.245992250E0,-3.436730504E-1,1.762878895E0,1.009541035E0
1.255974250E0,-2.508264780E-1,1.778097272E0,9.639796615E-1
1.265955250E0,-1.025296897E-1,1.847084284E0,1.062492728E0
1.275936250E0,6.560312584E-3,2.076545000E0,1.194790602E0
1.285917250E0,2.846821025E-2,2.392491579E0,1.322420835E0
1.295898250E0,-7.880745456E-3,2.634095669E0,1.404650927E0
1.305879250E0,-8.015694469E-2,2.799539804E0,1.360854506E0
1.315860250E0,-1.484952569E-1,2.796792507E0,1.246219516E0
1.325841250E0,-1.909408718E-1,2.703431845E0,1.072513461E0
1.335822250E0,-2.150368989E-1,2.545102835E0,9.110952020E-1
1.345803250E0,-2.580248415E-1,2.415245533E0,7.825771570E-1
1.355784250E0,-2.551968396E-1,2.360360622E0,7.722294331E-1
1.365765250E0,-2.046417147E-1,2.257333517E0,9.139635563E-1
1.375746250E0,-1.374381781E-1,2.251951218E0,9.883179665E-1
1.385727250E0,1.650924794E-3,2.202196121E0,9.734783769E-1
1.395708250E0,2.191358507E-1,2.163087845E0,8.933619261E-1
1.405689250E0,4.233209789E-1,2.120087624E0,8.232204914E-1
1.415670250E0,5.494036078E-1,2.075758934E0,8.124245405E-1
1.425651250E0,5.946817994E-1,2.072124720E0,8.988619447E-1
1.435632250E0,5.689689517E-1,2.278496742E0,1.081377387E0
1.445613250E0,5.572543144E-1,2.514980793E0,1.266736627E0
1.455594250E0,5.773659945E-1,2.505234957E0,1.396558285E0
1.465575250E0,6.102628112E-1,2.476448298E0,1.321971297E0
1.475556250E0,6.582915783E-1,2.401162863E0,1.154005170E0
1.485537250E0,6.958907843E-1,2.305800200E0,9.357830286E-1
1.495518250E0,7.322824001E-1,2.186399221E0,7.208611369E-1
1.505499250E0,7.335875034E-1,2.042361498E0,5.526632071E-1
1.515480250E0,7.534560561E-1,1.863563418E0,4.288491309E-1
1.525461250E0,7.792393565E-1,1.697863698E0,3.496640921E-1
1.535442250E0,8.409733176E-1,1.563022494E0,3.165993392E-1
1.545423250E0,1.006363988E0,1.490140438E0,3.517190516E-1
1.555404250E0,1.171729803E0,1.488208294E0,4.599397779E-1
1.565385250E0,1.237275600E0,1.499716997E0,5.668529868E-1
1.575366250E0,1.185698748E0,1.526402831E0,5.565095544E-1
1.585347250E0,9.681135416E-1,1.560829759E0,4.522992671E-1
1.595328250E0,4.667663276E-1,1.584940076E0,4.136384130E-1
1.605309250E0,-2.963847108E-2,1.680498362E0,4.139914811E-1
1.615290250E0,-6.386767626E-1,1.730188489E0,4.540102482E-1
1.625271250E0,-9.875838757E-1,1.696343064E0,4.119588733E-1
1.635252250E0,-9.244115353E-1,1.541926861E0,3.143843710E-1
1.645233250E0,-5.981799364E-1,1.317972779E0,1.875637025E-1
1.655214250E0,-2.515181303E-1,1.114533186E0,7.827448845E-2
1.665195250E0,-1.128386334E-1,8.778777122E-1,2.654803917E-2
1.675176250E0,-3.341524005E-1,6.179151535E-1,-5.656335503E-2
1.685157250E0,-6.933735013E-1,3.889944255E-1,-2.606565058E-1
1.695138250E0,-7.685561776E-1,1.702716947E-1,-5.464499593E-1
1.705119250E0,-5.550497174E-1,7.830876857E-2,-6.080607176E-1
1.715100250E0,-3.508798182E-1,9.601613134E-2,-5.200437307E-1
1.725081250E0,-4.422808588E-1,-7.792438380E-3,-4.443568885E-1
1.735062250E0,-6.348276734E-1,6.461944431E-2,-5.015669465E-1
1.745043250E0,-6.859272718E-1,1.388129294E-1,-5.401331186E-1
1.755024250E0,-3.234923780E-1,4.500866830E-1,-4.778119326E-1
1.765005250E0,1.668878365E-3,6.272332668E-1,-3.253334463E-1
1.774987250E0,2.504464686E-1,9.075961709E-1,-1.538346708E-1
1.784968250E0,5.252943039E-1,1.046470046E0,1.042425334E-1
1.794949250E0,3.646058142E-1,9.302837253E-1,1.701847911E-1
1.804930250E0,-1.989043877E-2,8.018530011E-1,6.053719297E-2
1.814911250E0,-1.706708968E-1,6.938959360E-1,-1.288136747E-2
1.824892250E0,-1.074377522E-1,6.771993041E-1,-4.578628391E-2
1.834873250E0,-5.057979748E-2,6.608312726E-1,-1.042240337E-1
1.844854250E0,-5.574964732E-2,5.719735026E-1,-1.661829203E-1
1.854835250E0,-1.356917061E-2,4.723449051E-1,-2.221543193E-1
1.864816250E0,9.142529964E-2,4.237400889E-1,-2.723269165E-1
1.874797250E0,2.141453624E-1,3.428295255E-1,-3.366249502E-1
1.884778250E0,3.016582131E-1,2.264602929E-1,-4.167479277E-1
1.894759250E0,3.324145377E-1,1.553291231E-1,-5.086520314E-1
1.904740250E0,3.220586479E-1,1.548332125E-1,-5.069110990E-1
1.914721250E0,3.346961737E-1,1.861706227E-1,-4.314011335E-1
1.924702250E0,3.465666473E-1,2.549387813E-1,-3.612745106E-1
1.934683250E0,3.345155716E-1,3.390145004E-1,-3.275517225E-1
1.944664542E0,2.649927139E-1,3.265061080E-1,-3.676975667E-1
1.954645542E0,1.707162708E-1,2.817096114E-1,-4.654153287E-1
1.964626542E0,9.930336475E-2,2.216805518E-1,-5.526493788E-1
1.974607542E0,1.332924962E-1,1.348412633E-1,-6.061980724E-1
1.984588542E0,2.546603978E-1,7.487393450E-3,-6.469390988E-1
1.994569542E0,3.748778701E-1,-8.662872016E-2,-6.888801455E-1
2.004550542E0,4.495424330E-1,-1.518154740E-1,-7.186701298E-1
2.014531542E0,4.473655820E-1,-2.325662524E-1,-7.173670530E-1
2.024512542E0,3.703187406E-1,-2.737150788E-1,-7.094684243E-1
2.034493542E0,2.749405801E-1,-3.353488743E-1,-7.243248820E-1
2.044474542E0,2.233476788E-1,-4.361378253E-1,-7.683912516E-1
2.054455542E0,1.630899310E-1,-4.538640976E-1,-8.119326234E-1
2.064436542E0,1.126331165E-1,-4.975109696E-1,-8.852667809E-1
2.074417542E0,1.231636759E-2,-3.562502563E-1,-6.967146993E-1
2.084398542E0,-1.090970188E-1,-1.504103988E-1,-4.868701696E-1
2.094379542E0,-1.538469195E-1,-1.116624698E-1,-2.429890782E-1
2.104360542E0,-2.096188813E-1,-6.097555533E-2,-6.523038447E-2
2.114341542E0,-3.061816394E-1,4.857011512E-2,1.279776841E-1
2.124322542E0,-4.400305152E-1,6.687443703E-2,-2.142606676E-1
2.134303542E0,-3.953391910E-1,3.086423501E-2,-3.242950141E-1
2.144284542E0,-2.997477353E-1,-8.416668326E-2,-4.073252901E-2
2.154265542E0,-1.803864390E-1,-1.464241892E-1,8.820175380E-2
2.164246542E0,-1.035073921E-1,-1.308104992E-1,1.874735355E-1
2.174227542E0,-4.302646592E-2,1.679280400E-2,2.905522585E-1
2.184208542E0,1.831071824E-2,1.369407773E-1,2.982730269E-1
2.194189542E0,7.516414672E-2,1.969998628E-1,2.880339622E-1
2.204170542E0,1.344065964E-1,7.396704704E-2,2.491242141E-1
2.214151542E0,2.463823855E-1,-1.622249931E-2,2.322757244E-1
2.224132542E0,3.020922244E-1,-1.441576332E-1,2.130181044E-1
2.234113542E0,3.731461763E-1,-2.231344730E-1,2.024157941E-1
2.244094542E0,4.289285243E-1,-2.240850776E-1,2.212167084E-1
2.254075542E0,4.461139143E-1,-1.925942600E-1,2.693416476E-1
2.264056542E0,5.013887286E-1,-1.291777194E-1,3.880639076E-1
2.274037542E0,6.119027138E-1,-1.031613052E-1,5.614279509E-1
2.284018542E0,7.385004759E-1,-9.700289369E-2,8.459026217E-1
2.293999542E0,9.143319726E-1,-1.085138768E-1,1.189724207E0
2.303980542E0,9.107170105E-1,1.554476470E-1,1.512679935E0
2.313961542E0,4.188285172E-1,7.855307460E-1,1.623298883E0
2.323942542E0,1.683457792E-1,7.606565952E-1,1.788248301E0
2.333923542E0,5.707563162E-1,7.267478704E-1,1.935524583E0
2.343904542E0,1.034477711E0,5.580424666E-1,1.862913489E0
2.353885542E0,1.276032448E0,1.717597991E-1,1.456383228E0
2.363866542E0,1.147449851E0,-2.450871766E-1,7.857686877E-1
2.373847542E0,7.199579477E-1,-7.185873985E-1,2.178261727E-1
2.383828542E0,2.339542061E-1,-6.233136654E-1,3.665446863E-2
2.393809542E0,-4.639995843E-2,-2.669046819E-1,9.604375809E-2
2.403790542E0,-9.991731644E-1,-2.592922449E-1,-1.265498847E-1
2.413771542E0,-1.691174269E0,-1.220979095E-1,-2.687586546E-1
2.423752542E0,-1.836457968E0,1.416379660E-1,-4.144622684E-1
2.433733542E0,-1.732108116E0,2.297944576E-1,-4.343899190E-1
2.443714542E0,-1.462720275E0,1.590675563E-1,-3.889963329E-1
2.453695542E0,-1.055343747E0,6.600020081E-2,-2.631944716E-1
2.463676542E0,-6.586645842E-1,-4.345902428E-2,8.136709221E-4
2.473657542E0,-3.496375084E-1,-1.450953782E-1,3.295311034E-1
2.483638542E0,-1.039981693E-1,-1.901187450E-1,6.327041388E-1
2.493619542E0,1.835730486E-2,-1.208414063E-1,1.056595087E0
2.503600542E0,1.080931947E-1,8.126945496E-1,1.298423886E0
2.513581542E0,3.134090602E-1,1.615562320E0,1.106935740E0
2.523562542E0,6.418861747E-1,1.894765735E0,6.615701318E-1
2.533543542E0,7.078872919E-1,1.937016606E0,2.810046971E-1
2.543524542E0,4.311708808E-1,1.628568649E0,4.700652882E-2
2.553506542E0,-1.240257546E-1,7.658250928E-1,1.256121248E-1
2.563487542E0,-5.315250158E-1,-6.323850155E-2,2.621210814E-1
2.573468542E0,-7.030674815E-1,-5.748485327E-1,4.913233519E-1
2.583449542E0,-6.041179299E-1,-6.513051391E-1,5.889426470E-1
2.593430542E0,-2.870430350E-1,-3.782896101E-1,4.241742194E-1
2.603411542E0,7.195232809E-2,1.866175532E-1,8.511722088E-2
2.613392542E0,3.917796016E-1,2.959571183E-1,1.082896516E-1
2.623373542E0,5.070936680E-1,9.086640924E-2,1.797224879E-1
2.633354542E0,5.350544453E-1,-8.089549094E-2,1.529252380E-1
2.643335542E0,5.085412264E-1,-3.745773062E-2,-4.703645781E-2
2.653316542E0,4.141281843E-1,9.984979033E-2,-1.992494315E-1
2.663297542E0,2.419110835E-1,2.252579182E-1,-9.728626162E-2
2.673278542E0,6.838669628E-2,3.376694024E-1,5.016924068E-2
2.683259542E0,1.303756423E-2,3.788738549E-1,4.623228684E-2
2.693240542E0,5.404225737E-2,3.431294262E-1,4.682448693E-3
2.703221542E0,1.577183008E-1,2.897499502E-1,1.235720608E-2
2.713202542E0,2.121053785E-1,2.818435431E-1,3.488967940E-2
2.723183542E0,2.329131961E-1,2.644139528E-1,4.629360139E-2
2.733164542E0,2.337206602E-1,2.722849250E-1,3.220814094E-2
2.743145542E0,2.121262103E-1,2.428464592E-1,1.655307226E-2
2.753126542E0,1.867537498E-1,2.018721402E-1,1.828172989E-2
2.763107542E0,1.343086362E-1,1.729409844E-1,1.694952883E-2
2.773088542E0,4.227883741E-2,1.439069360E-1,2.505912073E-2
2.783069542E0,-3.928152472E-2,1.192745864E-1,5.854186043E-2
2.793050542E0,-8.029393852E-2,8.667483181E-2,8.246317506E-2
2.803031542E0,-1.058511809E-1,4.832356051E-2,7.824771106E-2
2.813012542E0,-1.409074366E-1,1.823570020E-2,5.358790606E-2
2.822993542E0,-1.636220217E-1,-1.266207267E-2,2.924726903E-2
2.832974542E0,-1.613042653E-1,-3.938290104E-2,6.131829228E-3
2.842955542E0,-1.561819613E-1,-7.261452079E-2,-9.447220713E-3
2.852936542E0,-1.612611413E-1,-1.110173091E-1,-1.345900726E-2
2.862917542E0,-2.146599740E-1,-1.030797437E-1,-1.399844587E-1
2.872898542E0,-2.013907731E-1,-4.311521351E-2,-1.178118467E0
2.882879542E0,1.032287553E-1,-9.633447044E-3,-1.244416595E0
2.892860542E0,1.374477148E-1,-1.544132829E-1,-5.753257275E-1
2.902841542E0,-1.809526831E-1,-1.908893436E-1,-3.223878741E-1
2.912822542E0,-5.175136924E-1,-2.955638058E-2,-1.012270004E-1
2.922803542E0,-7.239580750E-1,3.772718906E-1,2.174475603E-2
2.932784542E0,-7.755424380E-1,5.232240558E-1,5.421854183E-2
2.942765625E0,-7.052907944E-1,4.468147159E-1,3.773290291E-2
2.952746625E0,-4.743790030E-1,3.567431569E-1,6.392402947E-2
2.962727625E0,-1.953200847E-1,2.296991795E-1,1.305045187E-2
2.972708625E0,3.721302375E-2,1.258153915E-1,-8.607453853E-2
2.982689625E0,1.823830158E-1,1.450546384E-1,-1.906279624E-1
2.992670625E0,1.812237352E-1,2.224602103E-1,-2.969000638E-1
3.002651625E0,1.590747535E-1,2.640241385E-1,-3.866600394E-1
3.012632625E0,1.435000598E-1,3.001230359E-1,-4.770333469E-1
3.022613625E0,1.094939560E-2,3.326832056E-1,-5.237325430E-1
3.032594625E0,-1.550054848E-1,3.102772534E-1,-5.391862988E-1
3.042575625E0,-3.039831817E-1,3.242425919E-1,-5.222001672E-1
3.052556625E0,-3.684524596E-1,3.861565590E-1,-5.150114894E-1
3.062537625E0,-3.529258966E-1,5.437676907E-1,-4.908251464E-1
3.072518625E0,-3.251589835E-1,6.597387791E-1,-4.713936448E-1
3.082499625E0,-1.453232467E-1,5.653826594E-1,-5.343099833E-1
3.092480625E0,-5.300875753E-2,6.424409151E-1,-5.807483196E-1
3.102461625E0,-1.147154942E-1,8.288665414E-1,-5.916378498E-1
3.112442625E0,-6.518473625E-1,1.515228868E0,-6.694892049E-1
3.122423625E0,-1.177216649E0,2.669335365E0,-1.057274580E0
3.132404625E0,-7.794093490E-1,2.442713022E0,-1.726801753E0
3.142385625E0,-1.080152616E-1,1.225219727E0,-1.748993397E0
3.152366625E0,2.509192228E-1,5.604137778E-1,-1.413299322E0
3.162347625E0,3.684854507E-1,2.551550278E-3,-1.183087587E0
3.172328625E0,3.331370652E-1,5.269674212E-2,-1.194887280E0
3.182309625E0,3.301711380E-1,3.010607064E-1,-1.137560606E0
3.192290625E0,3.983344734E-1,4.846126735E-1,-1.173143029E0
3.202271625E0,3.765974045E-1,6.435925961E-1,-1.077285767E0
3.212253625E0,4.712618887E-1,6.201440096E-1,-9.555203915E-1
3.222234625E0,4.804899395E-1,5.036835670E-1,-7.191787958E-1
3.232214625E0,4.919159710E-1,2.013761848E-1,-4.032380879E-1
3.242196625E0,5.360764861E-1,1.945007890E-1,-1.384478062E-1
3.252177625E0,5.858501792E-1,3.839945197E-1,1.329005975E-2
3.262158625E0,5.081179142E-1,2.316327989E-1,1.000337601E-1
3.272139625E0,4.208929837E-1,-8.951301128E-2,2.720296569E-2
3.282120625E0,2.467528433E-1,-3.485499620E-1,-1.056057066E-1
3.292101625E0,1.732836962E-1,-4.145446718E-1,-9.099055082E-2
3.302082625E0,1.687253267E-1,-4.133911133E-1,-9.560742229E-2
3.312063625E0,1.830246449E-1,-4.192484617E-1,-1.127019823E-1
3.322044625E0,1.954300255E-1,-4.314984679E-1,-1.387321502E-1
3.332025625E0,2.097945809E-1,-4.469698370E-1,-1.637839675E-1
3.342006625E0,2.219477296E-1,-4.704532921E-1,-1.751653850E-1
