"Time (s)","X (rad/s)","Y (rad/s)","Z (rad/s)"
1.613523750E-1,-1.357120872E0,1.765513778E0,-1.791505218E-1
1.713623750E-1,-8.733719587E-1,1.448948622E0,-2.005668581E-1
1.813723750E-1,-3.755744696E-1,1.406575322E0,-9.308008105E-2
1.913513750E-1,-4.637604579E-2,1.399204254E0,3.899619728E-2
2.013613750E-1,3.012774885E-2,1.366809368E0,1.260550767E-1
2.113713750E-1,-6.148046255E-2,1.353017449E0,1.653918326E-1
2.213503750E-1,-2.151881903E-1,1.439419985E0,2.041887790E-1
2.313603750E-1,-3.929400742E-1,1.536259532E0,2.290768176E-1
2.413693750E-1,-5.855521560E-1,1.607489586E0,2.386385500E-1
2.513793750E-1,-7.813326120E-1,1.687082052E0,2.120253146E-1
2.613583750E-1,-9.256887436E-1,1.658742905E0,1.638789922E-1
2.713683750E-1,-9.789516926E-1,1.445360541E0,9.373212606E-2
2.813783750E-1,-9.439539909E-1,1.200471044E0,6.277150661E-2
2.913883750E-1,-8.709260821E-1,9.894231558E-1,6.200504676E-2
3.013673750E-1,-8.235264421E-1,8.335306048E-1,8.793164045E-2
3.113773750E-1,-8.074492216E-1,7.231841087E-1,1.532747000E-1
3.213863750E-1,-7.516788244E-1,2.622220516E-1,1.959042549E-1
3.313663750E-1,-5.253620148E-1,1.205000840E-2,2.977675200E-1
3.413753750E-1,-2.587091625E-1,-2.465362251E-1,4.175486863E-1
3.513853750E-1,-8.233279735E-2,-6.323875189E-1,3.419910669E-1
3.613953750E-1,8.251436800E-2,-6.456573009E-1,3.706212938E-1
3.713743750E-1,1.811972708E-1,-6.272652149E-1,4.314756095E-1
3.813843750E-1,2.101078480E-1,-6.789034605E-1,5.378290415E-1
3.913943750E-1,2.102913409E-1,-6.966689229E-1,6.380653381E-1
4.014043750E-1,2.085675150E-1,-7.280522585E-1,5.431985855E-1
4.113760000E-1,2.825604975E-1,-8.138760924E-1,2.657046318E-1
4.213860000E-1,2.231865376E-1,-8.531211019E-1,-2.765342295E-1
4.313950000E-1,3.718312085E-2,-8.517522216E-1,-8.823679686E-1
4.413750000E-1,-3.217651546E-1,-8.970165849E-1,-1.112541437E0
4.513840000E-1,-7.286311984E-1,-8.222236037E-1,-9.768733382E-1
4.613940000E-1,-1.036893249E0,-6.520041227E-1,-6.122147441E-1
4.714040000E-1,-1.185504556E0,-5.746638179E-1,-1.580206305E-1
4.813830000E-1,-1.213787913E0,-5.222356915E-1,2.500171959E-1
4.913930000E-1,-1.179421186E0,-4.229844809E-1,5.476998091E-1
5.014030000E-1,-1.115130424E0,-3.715848923E-1,6.951963902E-1
5.114120000E-1,-1.061253071E0,-3.068213463E-1,7.283170819E-1
5.213920000E-1,-1.023709655E0,-1.713179797E-1,7.014107108E-1
5.314010000E-1,-9.869657755E-1,-3.260083497E-2,6.589828730E-1
5.414110000E-1,-9.481903911E-1,8.808813989E-2,5.877423882E-1
5.514210000E-1,-9.022476673E-1,2.427461594E-1,5.248648524E-1
5.614000000E-1,-8.299704790E-1,4.131324887E-1,4.870849550E-1
5.714100000E-1,-7.520570159E-1,5.516293645E-1,4.059392512E-1
5.814200000E-1,-6.108610630E-1,5.339666605E-1,3.306861818E-1
5.913990000E-1,-4.556813538E-1,4.857160449E-1,2.642509639E-1
6.014090000E-1,-3.893139362E-1,4.926497638E-1,1.224861741E-1
6.114190000E-1,-3.461188078E-1,5.787305832E-1,-6.100136414E-2
6.214280000E-1,-2.916490436E-1,5.722435117E-1,-2.690944970E-1
6.314080000E-1,-2.607720792E-1,4.943290055E-1,-4.839274287E-1
6.414170000E-1,-2.490726709E-1,3.336614370E-1,-6.732322574E-1
6.514270000E-1,-2.874331176E-1,1.792287230E-1,-8.622530699E-1
6.614370000E-1,-3.787547946E-1,4.448597133E-2,-1.054730058E0
6.714160000E-1,-4.630542099E-1,-6.570631266E-2,-1.200035810E0
6.814260000E-1,-5.935932994E-1,-4.862917364E-1,-1.329788208E0
6.914360000E-1,-6.537165642E-1,-5.386716127E-1,-1.402494550E0
7.014150000E-1,-7.031843066E-1,-6.101843119E-1,-1.418594837E0
7.114250000E-1,-7.358802557E-1,-7.070594430E-1,-1.441163898E0
7.214340000E-1,-7.658768892E-1,-7.473115921E-1,-1.501686335E0
7.314440000E-1,-7.934224606E-1,-7.551833391E-1,-1.565448046E0
7.414230000E-1,-8.034728169E-1,-7.369413376E-1,-1.670736194E0
7.514330000E-1,-8.031170368E-1,-6.731056571E-1,-1.757046580E0
7.614430000E-1,-7.607559562E-1,-6.248485446E-1,-1.779268026E0
7.714530000E-1,-7.037643194E-1,-5.535221696E-1,-1.738742709E0
7.814320000E-1,-6.306095719E-1,-4.004228711E-1,-1.670293212E0
7.914420000E-1,-5.608190894E-1,-2.897168398E-1,-1.593176007E0
8.014510000E-1,-4.859669507E-1,-2.059471905E-1,-1.488350153E0
8.114610000E-1,-4.052798450E-1,-1.632713675E-1,-1.377061248E0
8.214400000E-1,-3.396035135E-1,-9.910265356E-2,-1.258988500E0
8.314500000E-1,-3.042410016E-1,-2.327373018E-3,-1.155036330E0
8.414600000E-1,-3.001746535E-1,1.490905881E-1,-1.077539921E0
8.514390000E-1,-3.174963892E-1,2.817327976E-1,-1.021054268E0
8.614490000E-1,-3.415750563E-1,3.640193939E-1,-9.845187664E-1
8.714590000E-1,-3.699619472E-1,3.984506130E-1,-9.686980247E-1
8.814690000E-1,-3.960337937E-1,3.896906376E-1,-9.655272365E-1
8.914480000E-1,-4.123032987E-1,2.984395623E-1,-9.617463350E-1
9.014580000E-1,-4.074683785E-1,1.959789693E-1,-9.416468740E-1
9.114670000E-1,-3.746534586E-1,6.417061388E-2,-9.101952314E-1
9.214770000E-1,-3.344129324E-1,-8.672807366E-3,-8.600506186E-1
9.314560000E-1,-3.090614974E-1,5.085576698E-2,-8.002016544E-1
9.414660000E-1,-2.800489962E-1,1.047883183E-1,-7.394119501E-1
9.514760000E-1,-2.696770430E-1,6.804148853E-2,-6.785296798E-1
9.614550000E-1,-2.832907438E-1,-1.635497622E-2,-6.050526500E-1
9.714650000E-1,-3.029448986E-1,-6.244284287E-2,-5.275448561E-1
9.814750000E-1,-2.812257111E-1,-7.906632125E-2,-4.448472261E-1
9.914840000E-1,-1.773850471E-1,-8.407652378E-2,-3.641457260E-1
1.001464000E0,1.233291440E-2,-1.704500243E-2,-3.106549084E-1
1.011473000E0,3.058334887E-1,2.198146880E-1,-3.051469326E-1
1.021483000E0,7.168139815E-1,5.688587427E-1,-3.663190305E-1
1.031493000E0,1.180319548E0,7.295274734E-1,-5.384276509E-1
1.041472000E0,1.584997654E0,6.202288270E-1,-7.684426308E-1
1.051482000E0,1.829505920E0,3.338228464E-1,-9.228338003E-1
1.061492000E0,1.895887256E0,1.475709379E-1,-9.863572717E-1
1.071502000E0,1.795191765E0,6.806598604E-2,-9.616903067E-1
1.081481000E0,1.542941689E0,-7.238128781E-2,-8.962500095E-1
1.091491000E0,1.158758640E0,-1.186630353E-1,-8.492689133E-1
1.101500000E0,7.112647891E-1,-1.050759256E-1,-7.677763104E-1
1.111480000E0,2.836471200E-1,-3.005498052E-1,-6.259790063E-1
1.121489000E0,-4.230304062E-2,-4.489454031E-1,-5.388949513E-1
1.131499000E0,-2.317046672E-1,-5.802744627E-1,-5.171228051E-1
1.141509000E0,-3.246815801E-1,-7.388534546E-1,-5.450496674E-1
1.151488000E0,-3.809808195E-1,-8.288472295E-1,-5.904752016E-1
1.161498000E0,-3.775906861E-1,-8.015969992E-1,-6.738331318E-1
1.171508000E0,-3.009044230E-1,-7.324706912E-1,-7.336980700E-1
1.181517000E0,-1.689450592E-1,-6.922813654E-1,-8.026781678E-1
1.191497000E0,-4.750118405E-2,-6.534210443E-1,-8.696354032E-1
1.201506000E0,1.391414367E-2,-6.427368522E-1,-9.293876290E-1
1.211516000E0,2.306689508E-2,-6.824211478E-1,-9.473170638E-1
1.221495000E0,-2.169039473E-2,-7.298504710E-1,-9.628050327E-1
1.231505000E0,-8.810457587E-2,-7.673177123E-1,-9.457294345E-1
1.241515000E0,-1.362365484E-1,-8.428147435E-1,-9.462354779E-1
1.251525000E0,-1.803986728E-1,-8.737295270E-1,-9.487604499E-1
1.261504000E0,-2.288584113E-1,-8.578084707E-1,-9.387485385E-1
1.271514000E0,-2.740826011E-1,-7.911292911E-1,-9.146810174E-1
1.281523000E0,-3.096891642E-1,-7.391704917E-1,-8.858956099E-1
1.291533000E0,-3.093690574E-1,-7.178918123E-1,-8.585265875E-1
1.301513000E0,-2.053488493E-1,-6.816875935E-1,-8.472409844E-1
1.311522000E0,-5.727734417E-2,-6.450395584E-1,-8.702318072E-1
1.321532000E0,8.231163025E-2,-5.926869512E-1,-8.938731551E-1
1.331542000E0,1.643324494E-1,-5.162360668E-1,-9.203209877E-1
1.341521000E0,1.710846573E-1,-5.414137244E-1,-8.992697597E-1
1.351531000E0,1.349282414E-1,-5.803808570E-1,-8.589718938E-1
1.361541000E0,1.009228900E-1,-6.248097420E-1,-8.287532330E-1
1.371520000E0,7.570435107E-2,-6.856603026E-1,-7.946679592E-1
1.381530000E0,5.534933135E-2,-7.089729905E-1,-7.463365197E-1
1.391539000E0,7.448494434E-2,-6.214375496E-1,-7.586719990E-1
1.401549000E0,1.026030332E-1,-5.393988490E-1,-7.910604477E-1
1.411515708E0,1.200336888E-1,-4.826524854E-1,-8.146198392E-1
1.421525708E0,1.388784647E-1,-4.500761926E-1,-7.886794806E-1
1.431535708E0,1.564872861E-1,-4.265535474E-1,-7.288989425E-1
1.441545708E0,1.813627779E-1,-4.060173631E-1,-6.758810878E-1
1.451524708E0,1.933869421E-1,-3.322267532E-1,-6.496396065E-1
1.461534708E0,1.780545712E-1,-2.922869027E-1,-6.299341321E-1
1.471543708E0,1.430001855E-1,-2.547187507E-1,-6.542799473E-1
1.481523708E0,1.023391783E-1,-3.109142780E-1,-6.184734702E-1
1.491532708E0,1.064600423E-2,-3.609582484E-1,-5.550795794E-1
1.501542708E0,-9.390364587E-2,-4.532954097E-1,-4.831719995E-1
1.511552708E0,-2.201366872E-1,-5.736695528E-1,-4.766578972E-1
1.521531708E0,-3.650874197E-1,-6.300000548E-1,-5.267881751E-1
1.531541708E0,-4.826590419E-1,-6.586532593E-1,-5.905135870E-1
1.541551708E0,-5.572454929E-1,-6.681983471E-1,-6.316611171E-1
1.551561708E0,-6.298797727E-1,-6.976774335E-1,-6.742056608E-1
1.561540708E0,-7.027578950E-1,-7.240445018E-1,-7.017838359E-1
1.571550708E0,-7.722781301E-1,-7.466185689E-1,-7.413488626E-1
1.581559708E0,-8.450534940E-1,-7.616584301E-1,-7.700205445E-1
1.591569708E0,-9.206672907E-1,-7.587699294E-1,-7.984934449E-1
1.601548708E0,-1.021111727E0,-7.941545248E-1,-8.336271644E-1
1.611558708E0,-1.144022226E0,-7.601725459E-1,-9.104130268E-1
1.621568708E0,-1.311042905E0,-6.898915172E-1,-1.008874059E0
1.631547708E0,-1.488242745E0,-6.079111695E-1,-1.155308723E0
1.641557708E0,-1.666733384E0,-5.358379483E-1,-1.331490278E0
1.651567708E0,-1.799482107E0,-5.065319538E-1,-1.473320842E0
1.661576708E0,-1.926460862E0,-5.464619398E-1,-1.550722003E0
1.671556708E0,-2.057695627E0,-5.255159140E-1,-1.597878575E0
1.681565708E0,-2.123857975E0,-5.023692250E-1,-1.656986117E0
1.691575708E0,-2.146039248E0,-5.336840153E-1,-1.625841022E0
1.701585708E0,-2.120719433E0,-5.721253157E-1,-1.570755124E0
1.711564708E0,-2.040819883E0,-5.673345327E-1,-1.537343860E0
1.721574708E0,-1.934171677E0,-5.326979756E-1,-1.517678499E0
1.731584708E0,-1.767507792E0,-5.478122234E-1,-1.504094720E0
1.741563708E0,-1.643349409E0,-3.236913979E-1,-1.503306746E0
1.751573708E0,-1.558314681E0,-1.427474469E-1,-1.545412660E0
1.761583708E0,-1.552200675E0,-1.390107125E-1,-1.670655489E0
1.771592708E0,-1.633437514E0,-1.454824507E-1,-1.827966094E0
1.781572708E0,-1.753682256E0,-1.843839288E-1,-1.949653745E0
1.791581708E0,-1.899215460E0,-2.203507125E-1,-2.028814316E0
1.801591708E0,-2.076070547E0,-3.004057109E-1,-2.049965143E0
1.811601708E0,-2.278852940E0,-3.749241531E-1,-2.059316635E0
1.821580708E0,-2.441635609E0,-3.768893778E-1,-2.078181028E0
1.831590708E0,-2.500268698E0,-3.361603320E-1,-2.137424231E0
1.841600708E0,-2.501835108E0,-3.876714110E-1,-2.187230587E0
1.851609708E0,-2.455430269E0,-3.532822728E-1,-2.249807358E0
1.861589708E0,-2.352006197E0,-3.509437740E-1,-2.346751690E0
1.871598708E0,-2.257128239E0,-3.215576410E-1,-2.453430891E0
1.881608708E0,-2.187704325E0,-2.168182284E-1,-2.527897596E0
1.891587708E0,-2.079463720E0,-1.506035179E-1,-2.515778542E0
1.901597708E0,-2.071948528E0,1.176319458E-2,-2.433910847E0
1.911607708E0,-1.971981883E0,2.327509671E-1,-2.323664188E0
1.921617708E0,-1.923148990E0,4.223175049E-1,-2.119998217E0
1.931596708E0,-2.025030136E0,7.071777582E-1,-1.860796571E0
1.941606708E0,-2.059961557E0,6.307506561E-1,-1.640340924E0
1.951615708E0,-2.326964855E0,3.899774551E-1,-2.006485462E0
1.961625708E0,-2.503111362E0,-2.869163752E-1,-2.707029581E0
1.971604708E0,-2.667481661E0,-7.398963571E-1,-3.301012278E0
1.981614708E0,-2.683409691E0,-8.877428174E-1,-3.602768898E0
1.991624708E0,-2.600250483E0,-9.442268610E-1,-3.624304056E0
2.001634708E0,-2.409844398E0,-7.970651984E-1,-3.618341684E0
2.011613708E0,-2.057192802E0,-7.087294459E-1,-3.645632267E0
2.021623708E0,-1.567316294E0,-5.992456675E-1,-3.637266636E0
2.031633708E0,-1.059610367E0,-4.994197488E-1,-3.592406273E0
2.041612708E0,-6.666111946E-1,-5.252382159E-1,-3.601179600E0
2.051622708E0,-4.237561822E-1,-6.717826128E-1,-3.826848507E0
2.061631708E0,-2.821177542E-1,-9.153882265E-1,-4.123441696E0
2.071641708E0,-2.169432640E-1,-1.142170906E0,-4.356115341E0
2.081620708E0,-1.564351320E-1,-1.194981933E0,-4.520769119E0
2.091630708E0,-6.566315889E-2,-1.404203534E0,-4.684666634E0
2.101640708E0,2.702541836E-2,-1.464070082E0,-4.835418224E0
2.111650708E0,1.659798473E-1,-1.775088668E0,-4.929717541E0
2.121629708E0,2.714682221E-1,-1.780679822E0,-4.843255043E0
2.131639708E0,4.167031646E-1,-1.780744076E0,-4.576037407E0
2.141648708E0,5.848518014E-1,-1.640727282E0,-4.212224007E0
2.151628708E0,6.795154214E-1,-1.488972545E0,-3.893732071E0
2.161637708E0,6.442760825E-1,-1.298595190E0,-3.715633631E0
2.171647708E0,5.177474022E-1,-1.223590732E0,-3.686156988E0
2.181657708E0,3.773903251E-1,-1.224284053E0,-3.735872507E0
2.191636708E0,2.899324000E-1,-1.316118360E0,-3.809120893E0
2.201646708E0,2.542506754E-1,-1.423916817E0,-3.844608545E0
2.211656708E0,2.823193073E-1,-1.568102002E0,-3.773422956E0
2.221666708E0,3.339492977E-1,-1.534933329E0,-3.578549862E0
2.231645708E0,3.287441730E-1,-1.551827669E0,-3.172869205E0
2.241655708E0,2.361958027E-1,-1.503059030E0,-2.624736786E0
2.251664708E0,7.133014500E-2,-1.351338983E0,-2.157799721E0
2.261674708E0,-1.578177512E-1,-1.155437946E0,-1.874133229E0
2.271653708E0,-4.951632619E-1,-1.132750511E0,-1.703946590E0
2.281663708E0,-8.232108355E-1,-1.103421688E0,-1.652788520E0
2.291673708E0,-1.097405076E0,-1.211928010E0,-1.645357251E0
2.301652708E0,-1.251401663E0,-1.383773446E0,-1.658269882E0
2.311662708E0,-1.270808101E0,-1.555796385E0,-1.673009872E0
2.321672708E0,-1.174257874E0,-1.656685472E0,-1.666092515E0
2.331681708E0,-9.699001908E-1,-1.683998346E0,-1.659708858E0
2.341661708E0,-8.024127483E-1,-1.752487540E0,-1.577102900E0
2.351670708E0,-7.092668414E-1,-1.651618719E0,-1.458982944E0
2.361680708E0,-6.941796541E-1,-1.453032136E0,-1.342212915E0
2.371690708E0,-7.315190434E-1,-1.224689484E0,-1.258045077E0
2.381669708E0,-8.176587820E-1,-1.042103052E0,-1.182911634E0
2.391679708E0,-9.029030800E-1,-8.955405951E-1,-1.109256506E0
2.401689708E0,-9.667915702E-1,-8.340141773E-1,-1.051581860E0
2.411668708E0,-1.000744820E0,-7.844985723E-1,-1.014868021E0
2.421648708E0,-9.913381934E-1,-8.391482830E-1,-9.976891279E-1
2.431657708E0,-9.490594268E-1,-9.059920311E-1,-9.903124571E-1
2.441667708E0,-8.471524119E-1,-9.462639689E-1,-1.028383732E0
2.451647708E0,-7.442353964E-1,-9.735014439E-1,-1.071606755E0
2.461656708E0,-6.375901699E-1,-9.584128261E-1,-1.086039662E0
2.471666708E0,-5.286048055E-1,-9.214603901E-1,-1.049300313E0
2.481676708E0,-4.323818386E-1,-8.764579892E-1,-9.766230583E-1
2.491655708E0,-3.355360031E-1,-7.891489267E-1,-8.980405927E-1
2.501665708E0,-2.339549959E-1,-7.107883692E-1,-8.158707619E-1
2.511675708E0,-1.047655791E-1,-6.699160337E-1,-7.399128675E-1
2.521684708E0,9.089171886E-3,-6.208795309E-1,-6.524504423E-1
2.531664708E0,8.243849128E-2,-5.643765926E-1,-5.619732738E-1
2.541673708E0,1.134251952E-1,-5.138830543E-1,-4.840211570E-1
2.551683708E0,1.185222194E-1,-4.915538132E-1,-4.373670816E-1
2.561662708E0,9.055569768E-2,-4.876265526E-1,-4.227884710E-1
2.571672708E0,5.269354209E-2,-4.079509079E-1,-4.023388326E-1
2.581682708E0,3.947497904E-2,-3.795533776E-1,-3.836013079E-1
2.591692708E0,6.022259966E-2,-3.202170730E-1,-3.256692886E-1
2.601671708E0,1.460712105E-1,-2.705737650E-1,-2.337473184E-1
2.611681708E0,3.006061614E-1,-2.419767529E-1,-1.319911331E-1
2.621690708E0,5.083113909E-1,-2.252422869E-1,-6.496703625E-2
2.631700708E0,7.213498950E-1,-2.198698819E-1,-3.227380291E-2
2.641679708E0,9.395247102E-1,-2.567026317E-1,-4.963685060E-4
2.651689708E0,1.184757590E0,-3.262920976E-1,2.169894986E-2
2.661699708E0,1.361395836E0,-3.928533196E-1,1.042977273E-1
2.671678708E0,1.488703966E0,-3.945572078E-1,1.776206791E-1
2.681688708E0,1.604688287E0,-3.877895176E-1,2.059803009E-1
2.691698708E0,1.810433149E0,-7.596234679E-1,2.208314091E-1
2.701708708E0,2.742597580E0,-1.395075560E0,2.053442299E-1
2.711687708E0,3.427661419E0,-1.506668925E0,8.317091316E-2
2.721697708E0,3.830565929E0,-1.972624063E0,5.446154624E-2
2.731706708E0,4.373120785E0,-2.289986849E0,-4.583736137E-2
2.741716708E0,4.789584160E0,-2.306684256E0,-3.541775048E-1
2.751695708E0,4.246316433E0,-9.788886309E-1,-7.456629872E-1
2.761705708E0,1.747625232E0,8.870460391E-1,-8.106735349E-1
2.771715708E0,-3.124218062E-2,4.881910682E-1,-5.994337201E-1
2.781725708E0,-3.594855964E-1,-6.418739259E-2,-3.768121898E-1
2.791704708E0,2.494395077E-1,-7.479146123E-1,8.375406265E-2
2.801714708E0,8.494707942E-1,-1.310500741E0,5.913191438E-1
2.811723708E0,8.715646267E-1,-1.456671000E0,7.840588093E-1
2.821703708E0,4.779212475E-1,-1.390630126E0,7.388814688E-1
2.831712708E0,2.218939811E-1,-1.169948339E0,5.371334553E-1
2.841722708E0,2.697792947E-1,-7.788440585E-1,3.676522076E-1
2.851732708E0,5.525023341E-1,-6.773050129E-2,4.358893335E-1
2.861711708E0,8.973422050E-1,5.143088102E-1,4.491771758E-1
2.871721708E0,9.678874612E-1,6.851878762E-1,3.135144114E-1
2.881731708E0,7.123323679E-1,6.397526264E-1,1.179043949E-1
2.891741708E0,4.660655856E-1,3.520081937E-1,-2.602588385E-2
2.901720708E0,3.764994144E-1,1.851456165E-1,-1.092428267E-1
2.911730708E0,3.991370797E-1,-1.633716747E-2,-5.392657220E-2
2.921739708E0,4.414348006E-1,-1.316033304E-1,7.059436291E-2
2.931719708E0,4.998491108E-1,-1.461037099E-1,9.067139775E-2
2.941728708E0,4.838152230E-1,-1.348355711E-1,1.549458224E-2
2.951738708E0,4.579830766E-1,-1.492360830E-1,-8.531139046E-2
2.961748708E0,4.131659865E-1,-2.139145732E-1,-1.231242567E-1
2.971727708E0,4.168661833E-1,-2.696079314E-1,-6.210538372E-2
2.981737708E0,4.034119248E-1,-3.334350288E-1,-9.691357613E-2
2.991747708E0,3.866244256E-1,-4.059904516E-1,-2.172053605E-1
3.001756708E0,2.197943777E-1,-4.942338467E-1,-2.057126164E-1
3.011736708E0,1.688587666E-1,-5.520814657E-1,-1.329324245E-1
3.021745708E0,1.943192184E-1,-5.052111149E-1,-9.593576193E-2
3.031755708E0,4.683709890E-2,-4.965960979E-1,-8.772550523E-2
3.041765708E0,-1.549526602E-1,-5.488927364E-1,-8.265344054E-2
3.051744708E0,-3.175833821E-1,-5.614335537E-1,-4.021409899E-2
3.061754708E0,-3.515511453E-1,-5.449127555E-1,-1.028932445E-2
3.071764708E0,-3.133041561E-1,-5.661410689E-1,5.785191059E-2
3.081743708E0,-3.093107343E-1,-5.714951158E-1,9.587732702E-2
3.091753708E0,-3.134093583E-1,-5.930949450E-1,1.700791121E-1
3.101762708E0,-2.581652403E-1,-5.984205604E-1,2.265682667E-1
3.111772708E0,-1.881014705E-1,-6.006911993E-1,1.696650386E-1
3.121751708E0,-1.330706477E-1,-6.223771572E-1,9.440480173E-2
3.131761708E0,-8.104526252E-2,-6.506465673E-1,1.516164653E-2
3.141771708E0,-4.109418765E-2,-6.636328697E-1,-6.992290728E-3
3.151781708E0,1.577299684E-1,-7.873920798E-1,-7.453565300E-2
3.161760708E0,3.434670866E-1,-9.086568952E-1,-1.906997561E-1
3.171770708E0,3.788226843E-1,-9.823899865E-1,-4.080656171E-1
3.181780708E0,-2.718932927E-1,-8.197485805E-1,-6.221201420E-1
3.191759708E0,-6.247895956E-1,-8.139724731E-1,-6.680431962E-1
3.201769708E0,-5.550816655E-1,-7.644224167E-1,-6.245368719E-1
3.211778708E0,-5.820347071E-1,-6.897175908E-1,-6.352443695E-1
3.221788708E0,-6.275388598E-1,-6.823127270E-1,-7.294148803E-1
3.231767708E0,-6.495416164E-1,-7.535538673E-1,-7.998871803E-1
3.241777708E0,-6.796077490E-1,-8.381781578E-1,-8.430715799E-1
3.251787708E0,-7.280098796E-1,-9.197329283E-1,-9.020544291E-1
3.261797708E0,-8.438209891E-1,-9.953508973E-1,-9.713034630E-1
3.271776708E0,-8.548161387E-1,-1.050819755E0,-1.045054317E0
3.281786708E0,-8.937686086E-1,-1.045531034E0,-1.081594467E0
3.291795708E0,-9.266226888E-1,-1.021166563E0,-1.108075023E0
3.301805708E0,-9.706103802E-1,-1.010032892E0,-1.091037989E0
3.311784708E0,-1.042052865E0,-9.758372307E-1,-1.212960958E0
3.321794708E0,-1.130057573E0,-9.004396796E-1,-1.278262496E0
3.331804708E0,-1.197584391E0,-8.795493245E-1,-1.294271231E0
3.341783708E0,-1.223108053E0,-8.384597301E-1,-1.313889027E0
3.351793708E0,-1.247443914E0,-7.819583416E-1,-1.382310629E0
3.361803708E0,-1.288180709E0,-7.534833550E-1,-1.431693673E0
3.371813708E0,-1.341919899E0,-7.858670950E-1,-1.512840271E0
3.381792708E0,-1.405487180E0,-8.603338599E-1,-1.631840587E0
3.391802708E0,-1.231167555E0,-4.186347127E-1,-1.627772808E0
3.401811708E0,-1.340938926E0,-3.371076286E-1,-1.499889374E0
3.411821708E0,-1.467577100E0,-3.813003898E-1,-1.443775535E0
3.421795958E0,-1.340034366E0,-7.446397543E-1,-1.430495858E0
3.431805958E0,-9.823165536E-1,-8.260771036E-1,-1.335607171E0
