"Time (s)","Acceleration x (m/s^2)","Acceleration y (m/s^2)","Acceleration z (m/s^2)"
0.000000000E0,5.104533434E-1,3.131816864E0,8.998051643E0
1.136410000E-3,4.929469824E-1,3.128484249E0,9.010252953E0
3.136410000E-3,4.853908718E-1,3.125390768E0,9.015806198E0
5.136410000E-3,4.817900062E-1,3.123925447E0,9.018449783E0
7.136410000E-3,4.800853133E-1,3.123226643E0,9.019704819E0
9.136410000E-3,4.470836520E-1,3.125860214E0,9.033207893E0
1.116609800E-2,4.063534737E-1,3.120439768E0,9.056566238E0
1.313641000E-2,3.730549216E-1,3.127277613E0,9.062197685E0
1.513641000E-2,3.417387605E-1,3.139564514E0,9.077845573E0
1.713641000E-2,3.199323714E-1,3.136270285E0,9.098541260E0
1.913641000E-2,2.840768099E-1,3.126779556E0,9.128880501E0
2.113641000E-2,2.612361312E-1,3.121703863E0,9.145496368E0
2.313641000E-2,2.508931756E-1,3.101190329E0,9.149297714E0
2.513641000E-2,2.349382192E-1,3.079498768E0,9.155043602E0
2.713641000E-2,2.207262367E-1,3.048968077E0,9.164946556E0
2.913484800E-2,1.973492652E-1,3.015937567E0,9.165387154E0
3.113641000E-2,1.838842630E-1,2.975695848E0,9.189223289E0
3.313641000E-2,1.588696390E-1,2.950374842E0,9.216891289E0
3.513641000E-2,1.596741080E-1,2.924632311E0,9.238534927E0
3.713641000E-2,1.499632150E-1,2.891132593E0,9.246014595E0
3.913641000E-2,1.478850543E-1,2.870006084E0,9.273174286E0
4.114578500E-2,1.463144571E-1,2.845652342E0,9.304030418E0
4.313641000E-2,1.576629579E-1,2.825330257E0,9.308435440E0
4.513641000E-2,1.741063595E-1,2.805410624E0,9.320923805E0
4.713641000E-2,1.900134236E-1,2.788900137E0,9.342576981E0
4.913953500E-2,2.177095562E-1,2.790269852E0,9.351435661E0
5.113641000E-2,2.543791234E-1,2.777743101E0,9.365197182E0
5.313641000E-2,2.915562987E-1,2.778250694E0,9.388324738E0
5.513641000E-2,3.203729391E-1,2.778270006E0,9.389848709E0
5.713641000E-2,3.705649674E-1,2.781296253E0,9.396542549E0
5.913641000E-2,4.030111730E-1,2.773787975E0,9.380702019E0
6.113641000E-2,4.366545081E-1,2.771882296E0,9.382090569E0
6.313641000E-2,4.615637958E-1,2.738641024E0,9.360227585E0
6.513641000E-2,4.919701517E-1,2.719535351E0,9.354989052E0
6.713484800E-2,5.123592019E-1,2.714928865E0,9.350430489E0
6.913484800E-2,5.445180535E-1,2.702048063E0,9.348544121E0
7.113484800E-2,5.680866241E-1,2.697412968E0,9.347327232E0
7.313641000E-2,6.422685385E-1,2.713118792E0,9.330289841E0
7.513641000E-2,6.880935431E-1,2.732397079E0,9.331324577E0
7.713641000E-2,7.570273876E-1,2.748792410E0,9.329686165E0
7.913484800E-2,8.183381557E-1,2.766930819E0,9.338986397E0
8.114109800E-2,8.777526021E-1,2.789398193E0,9.346570015E0
8.313641000E-2,9.586383700E-1,2.794895172E0,9.345880508E0
8.513641000E-2,1.011234164E0,2.799147367E0,9.338707924E0
8.713641000E-2,1.058926582E0,2.811300278E0,9.324687958E0
8.913641000E-2,1.100480437E0,2.813771248E0,9.303609848E0
9.113641000E-2,1.126577258E0,2.819316149E0,9.298188210E0
9.313641000E-2,1.155997157E0,2.829027176E0,9.259690285E0
9.513641000E-2,1.182544112E0,2.831526518E0,9.231993675E0
9.713641000E-2,1.185771465E0,2.838929415E0,9.209085464E0
9.913641000E-2,1.188194513E0,2.855114222E0,9.183965683E0
1.011364100E-1,1.192139983E0,2.874823332E0,9.156394958E0
1.031364100E-1,1.196554899E0,2.900709391E0,9.116468430E0
1.051364100E-1,1.171540380E0,2.930684805E0,9.098837852E0
1.071395350E-1,1.149484992E0,2.973445415E0,9.078889847E0
1.091364100E-1,1.126739979E0,2.990702629E0,9.039959908E0
1.111364100E-1,1.105939150E0,3.017872095E0,8.990792274E0
1.131364100E-1,1.087599635E0,3.038634539E0,8.929750443E0
1.151379730E-1,1.073215365E0,3.060230255E0,8.874567986E0
1.171364100E-1,1.101466775E0,3.081586599E0,8.813621521E0
1.191364100E-1,1.279202700E0,3.108478308E0,8.748614311E0
1.211364100E-1,1.325554609E0,3.129279137E0,8.694514275E0
1.231395350E-1,1.191000342E0,3.132985353E0,8.631586075E0
1.251364100E-1,1.007834435E0,3.129824877E0,8.635445595E0
1.271364100E-1,8.410543203E-1,3.123446703E0,8.635991096E0
1.291364100E-1,6.948451996E-1,3.099524021E0,8.614423752E0
1.311457850E-1,4.979173243E-1,3.054809809E0,8.569518089E0
1.331364100E-1,3.670598567E-1,3.021990299E0,8.547040939E0
1.351364100E-1,2.496481985E-1,2.993939638E0,8.544321060E0
1.371364100E-1,1.553549618E-1,2.981748343E0,8.558955193E0
1.391364100E-1,8.369170874E-2,2.974623203E0,8.612499237E0
1.411364100E-1,-1.777455397E-2,2.959137440E0,8.868505478E0
1.431364100E-1,-2.662352286E-2,2.955584526E0,8.977969170E0
1.451364100E-1,-2.818454243E-2,2.953898907E0,9.035708427E0
1.471364100E-1,-2.062844299E-2,2.961493492E0,9.090266228E0
1.491364100E-1,-1.929726638E-2,2.954617262E0,9.149652481E0
1.511364100E-1,-1.802355051E-2,2.948966980E0,9.198964119E0
1.531457850E-1,-6.042964756E-3,2.967038393E0,9.272953987E0
1.551395350E-1,-1.554315723E-2,2.963294029E0,9.339081764E0
1.571364100E-1,-1.993891224E-2,2.971549034E0,9.413703918E0
1.591582850E-1,-3.718674183E-2,2.979191303E0,9.470868111E0
1.611442230E-1,-6.567773968E-2,2.987159252E0,9.540931702E0
1.631410980E-1,-1.097310483E-1,2.992244720E0,9.600920677E0
1.651364100E-1,-1.506910622E-1,2.988404274E0,9.673619270E0
1.671364100E-1,-1.782818288E-1,2.990894318E0,9.733598709E0
1.691473480E-1,-1.960851103E-1,2.981221676E0,9.793903351E0
1.711379730E-1,-1.901187748E-1,2.963810921E0,9.842706680E0
1.731473480E-1,-2.027984560E-1,2.945586443E0,9.880170822E0
1.751379730E-1,-2.214157730E-1,2.941956758E0,9.906028748E0
1.771364100E-1,-2.452237159E-1,2.935731888E0,9.918956757E0
1.791785980E-1,-2.790681422E-1,2.924661160E0,9.912118912E0
1.811379730E-1,-3.211965263E-1,2.894293070E0,9.876350403E0
1.831364100E-1,-3.488543332E-1,2.871711016E0,9.851718903E0
1.851364100E-1,-3.768569231E-1,2.862603188E0,9.835361481E0
1.871364100E-1,-3.895462155E-1,2.857872248E0,9.806545258E0
1.891489100E-1,-4.005595148E-1,2.861281633E0,9.777794838E0
1.911520350E-1,-4.308701158E-1,2.865198612E0,9.748528481E0
1.931364100E-1,-4.372099638E-1,2.877322674E0,9.694668770E0
1.951364100E-1,-4.344230890E-1,2.889332294E0,9.641345024E0
1.971379730E-1,-4.157291949E-1,2.917267799E0,9.565410614E0
1.991426600E-1,-3.813580275E-1,2.956379414E0,9.482034683E0
2.011660980E-1,-3.017172813E-1,2.989984274E0,9.394875526E0
2.031364100E-1,-2.007011473E-1,3.019873619E0,9.259958267E0
2.051379730E-1,-1.055459902E-1,3.046832323E0,9.146769524E0
2.071364100E-1,1.287122816E-2,3.074835062E0,9.048933983E0
2.091426600E-1,1.203996092E-1,3.086786747E0,8.948749542E0
2.111676600E-1,2.388359904E-1,3.097666025E0,8.858527184E0
2.131379730E-1,3.984526396E-1,3.117374897E0,8.754226685E0
2.151379730E-1,5.160653591E-1,3.139765739E0,8.698441505E0
2.171410980E-1,6.642856598E-1,3.168898344E0,8.673838615E0
2.191364100E-1,1.307837486E0,3.371217966E0,8.815182686E0
2.211364100E-1,1.508663058E0,3.407456636E0,8.877154350E0
2.231364100E-1,1.614573002E0,3.382767677E0,8.912482262E0
2.251364100E-1,1.556729078E0,3.297399998E0,8.901776314E0
2.271364100E-1,1.452236533E0,3.233561039E0,8.875555038E0
2.291676600E-1,1.352369666E0,3.174845457E0,8.831108093E0
2.311364100E-1,1.301928639E0,3.142504692E0,8.845196724E0
2.331707850E-1,1.858245254E0,3.078330517E0,8.944278717E0
2.351457850E-1,2.789379120E0,3.035713673E0,9.166326523E0
2.371426600E-1,3.074155092E0,3.054005384E0,9.312668800E0
2.391364100E-1,2.935406208E0,3.138338566E0,9.428462029E0
2.411395350E-1,2.762985468E0,3.190532207E0,9.473721504E0
2.431520350E-1,2.378371239E0,3.314695597E0,9.542205811E0
2.451364100E-1,2.079890966E0,3.373497248E0,9.571022034E0
2.471364100E-1,1.792375922E0,3.413930416E0,9.571539879E0
2.491489100E-1,1.540333629E0,3.417407036E0,9.560133934E0
2.511364100E-1,1.324836254E0,3.390304327E0,9.540271759E0
2.531379730E-1,1.074967742E0,3.332728863E0,9.501131058E0
2.551364100E-1,9.444838166E-1,3.278466463E0,9.470953941E0
2.571364100E-1,8.217187524E-1,3.236615896E0,9.446130753E0
2.591364100E-1,7.375290394E-1,3.204725027E0,9.431709290E0
2.611395350E-1,6.440785527E-1,3.178379297E0,9.413646698E0
2.631395350E-1,5.965489149E-1,3.171550989E0,9.398017883E0
2.651364100E-1,5.343475342E-1,3.149419308E0,9.386487007E0
2.671364100E-1,5.027057528E-1,3.146689653E0,9.382925034E0
2.691551600E-1,4.923149049E-1,3.146747112E0,9.397912025E0
2.711473480E-1,4.863581359E-1,3.136452198E0,9.409002304E0
2.731364100E-1,4.880340993E-1,3.114827633E0,9.413359642E0
2.751364100E-1,4.992485046E-1,3.101918221E0,9.428826332E0
2.771364100E-1,5.218498111E-1,3.101946831E0,9.441189766E0
2.791410980E-1,5.598984361E-1,3.100050688E0,9.450182915E0
2.811489100E-1,6.183265448E-1,3.101209402E0,9.455679893E0
2.831364100E-1,7.020948529E-1,3.100826502E0,9.466759682E0
2.851364100E-1,7.730206847E-1,3.121090889E0,9.481240273E0
2.871598480E-1,8.337089419E-1,3.154925823E0,9.488154411E0
2.891364100E-1,8.924530745E-1,3.178216457E0,9.492990494E0
2.911364100E-1,9.474143386E-1,3.208996296E0,9.517181396E0
2.931473480E-1,1.007365227E0,3.236050844E0,9.521768570E0
2.951489100E-1,1.070916891E0,3.261946440E0,9.543058395E0
2.971364100E-1,1.106092453E0,3.276512861E0,9.557816505E0
2.991410980E-1,1.131183743E0,3.277077913E0,9.560382843E0
3.011379730E-1,1.173618555E0,3.278993368E0,9.575455666E0
3.031364100E-1,1.204589963E0,3.283456087E0,9.574144363E0
3.051364100E-1,1.205825329E0,3.274712324E0,9.574892044E0
3.071442230E-1,1.203431129E0,3.270460367E0,9.578722000E0
3.091426600E-1,1.198680997E0,3.262578726E0,9.575159073E0
3.111410980E-1,1.190483332E0,3.248500824E0,9.575686455E0
3.131364100E-1,1.140339136E0,3.230477333E0,9.544236183E0
3.151442230E-1,1.121185541E0,3.248845577E0,9.533059120E0
3.171364100E-1,1.121195078E0,3.236213684E0,9.528396606E0
3.191535980E-1,1.125083208E0,3.237401009E0,9.503928185E0
3.211520350E-1,1.134813309E0,3.238081217E0,9.477696419E0
3.231629730E-1,1.142838597E0,3.246096849E0,9.453888893E0
3.251457850E-1,1.141995907E0,3.249487162E0,9.434610367E0
3.271395350E-1,1.139247298E0,3.235322952E0,9.400402069E0
3.291364100E-1,1.168868423E0,3.248318911E0,9.366040230E0
3.311723480E-1,1.177583337E0,3.256899595E0,9.319890022E0
3.331567230E-1,1.188127398E0,3.257742405E0,9.285394669E0
3.351426600E-1,1.200318575E0,3.257589102E0,9.217341423E0
3.371364100E-1,1.208410978E0,3.270977497E0,9.180269241E0
3.391598480E-1,1.224500179E0,3.286214113E0,9.145333290E0
3.411520350E-1,1.241537213E0,3.303682327E0,9.096223831E0
3.431410980E-1,1.256065249E0,3.313967705E0,9.072386742E0
3.451379730E-1,1.268409848E0,3.311458826E0,9.051643372E0
3.471364100E-1,1.304294109E0,3.315126657E0,9.023363113E0
3.491364100E-1,1.326234460E0,3.315892935E0,9.012407303E0
3.511364100E-1,1.354409456E0,3.310414791E0,8.999852180E0
3.531379730E-1,1.369445086E0,3.286970615E0,8.986224174E0
3.551379730E-1,1.400435686E0,3.275976658E0,8.966563225E0
3.571473480E-1,1.451393843E0,3.271734238E0,8.970833778E0
3.591895350E-1,1.484338045E0,3.243913651E0,8.981684685E0
3.611645350E-1,1.532365680E0,3.216954947E0,9.006105423E0
3.631395350E-1,1.573392749E0,3.212693214E0,9.039844513E0
3.651364100E-1,1.610895514E0,3.209724426E0,9.063087463E0
3.671364100E-1,1.633774519E0,3.201574564E0,9.101538658E0
3.691473480E-1,1.660848141E0,3.188214779E0,9.152400970E0
3.711410980E-1,1.674188614E0,3.179394484E0,9.189769745E0
3.731364100E-1,1.673738480E0,3.175544739E0,9.228143692E0
3.751457850E-1,1.666201591E0,3.165488958E0,9.236782074E0
3.771364100E-1,1.632472038E0,3.147522926E0,9.270339966E0
3.791364100E-1,1.608616233E0,3.138520718E0,9.292567253E0
3.811364100E-1,1.567637086E0,3.111763239E0,9.316412926E0
3.831364100E-1,1.517425895E0,3.094467402E0,9.334589958E0
3.851379730E-1,1.492478251E0,3.070353031E0,9.357813835E0
3.871364100E-1,1.430114150E0,3.049868107E0,9.377839088E0
3.891395350E-1,1.374051571E0,3.032946110E0,9.388469696E0
3.911364100E-1,1.333196878E0,3.007749557E0,9.403630257E0
3.931379730E-1,1.316447020E0,2.980532169E0,9.406981468E0
3.951442230E-1,1.288769960E0,2.944504261E0,9.413837433E0
3.971426600E-1,1.248556972E0,2.923406601E0,9.425464630E0
3.991473480E-1,1.223695636E0,2.912536860E0,9.436861038E0
4.011926600E-1,1.194457650E0,2.893440723E0,9.439121246E0
4.031442230E-1,1.158190250E0,2.886976242E0,9.448831558E0
4.051364100E-1,1.134660006E0,2.884773731E0,9.443632126E0
4.071364100E-1,1.130044103E0,2.890481472E0,9.439801216E0
4.091535980E-1,1.115056396E0,2.899349689E0,9.423913002E0
4.111473480E-1,1.127563596E0,2.917698622E0,9.413819313E0
4.131395350E-1,1.168581128E0,2.914327621E0,9.399808884E0
4.151364100E-1,1.214731812E0,2.907691002E0,9.383010864E0
4.171364100E-1,1.275755167E0,2.908409119E0,9.359202385E0
4.191364100E-1,1.339364290E0,2.914107323E0,9.342260361E0
4.211364100E-1,1.415796757E0,2.912211180E0,9.333230019E0
4.231379730E-1,1.495993018E0,2.911579132E0,9.319535255E0
4.251410980E-1,1.558338046E0,2.919221401E0,9.321489334E0
4.271364100E-1,1.624686122E0,2.915505648E0,9.327455521E0
4.291364100E-1,1.715033650E0,2.909376383E0,9.338918686E0
4.311364100E-1,1.766480327E0,2.901552200E0,9.364748001E0
4.331364100E-1,1.818271756E0,2.883930922E0,9.394857407E0
4.351364100E-1,1.859030604E0,2.875426769E0,9.409854889E0
4.371473480E-1,1.885405183E0,2.859079123E0,9.438135147E0
4.391379730E-1,1.891601324E0,2.850268364E0,9.468100548E0
4.411457850E-1,1.888057828E0,2.834476233E0,9.487187386E0
4.431364100E-1,1.873089314E0,2.829352617E0,9.507058144E0
4.451504730E-1,1.846954226E0,2.799635649E0,9.533185005E0
4.471379730E-1,1.802690148E0,2.764517546E0,9.556878090E0
4.491364100E-1,1.737893581E0,2.736266136E0,9.609999657E0
4.511410980E-1,1.651031852E0,2.702297211E0,9.652262688E0
4.531364100E-1,1.607227683E0,2.679715157E0,9.658247948E0
4.551364100E-1,1.526533484E0,2.651099682E0,9.694878578E0
4.571364100E-1,1.426350474E0,2.626075506E0,9.729537964E0
4.591426600E-1,1.285370231E0,2.587662935E0,9.746287346E0
4.611426600E-1,1.170601845E0,2.560024261E0,9.772164345E0
4.631520350E-1,1.069039822E0,2.546386719E0,9.787716866E0
4.651364100E-1,9.549800158E-1,2.531399012E0,9.792408943E0
4.671442230E-1,8.011764884E-1,2.518211603E0,9.788818359E0
4.691364100E-1,7.003136277E-1,2.512063503E0,9.798385620E0
4.711364100E-1,3.702393472E-1,2.504899979E0,9.763630867E0
4.731364100E-1,2.495620102E-1,2.514744759E0,9.751784325E0
4.751582850E-1,1.852346063E-1,2.508376360E0,9.750127792E0
4.771364100E-1,9.334513545E-2,2.512762547E0,9.747187614E0
4.791489100E-1,2.980302274E-2,2.515635490E0,9.737591743E0
4.811426600E-1,-2.717897855E-2,2.517436028E0,9.732965469E0
4.831364100E-1,-8.554004133E-2,2.517579556E0,9.721263885E0
4.851364100E-1,-1.381741613E-1,2.511766672E0,9.716819763E0
4.871364100E-1,-1.902528405E-1,2.504957438E0,9.709435463E0
4.891489100E-1,-2.427145839E-1,2.489146233E0,9.697713852E0
4.911379730E-1,-2.808590233E-1,2.485516548E0,9.661858559E0
4.931473480E-1,-3.217711151E-1,2.483007431E0,9.641736984E0
4.951379730E-1,-3.600974977E-1,2.470040560E0,9.596545219E0
4.971379730E-1,-4.052042961E-1,2.463499546E0,9.565113068E0
4.991879730E-1,-4.510101378E-1,2.436684370E0,9.518072128E0
5.011379730E-1,-4.895855188E-1,2.416764736E0,9.460505486E0
5.031410980E-1,-5.276724696E-1,2.405109644E0,9.419153214E0
5.051364100E-1,-5.789659023E-1,2.398808002E0,9.366145134E0
5.071426600E-1,-6.040284038E-1,2.398214340E0,9.326717377E0
5.091364100E-1,-6.352391839E-1,2.415768623E0,9.285231590E0
5.112114100E-1,-6.530519724E-1,2.438743353E0,9.238649368E0
5.131379730E-1,-6.707212329E-1,2.446807146E0,9.203464508E0
5.151614100E-1,-6.883138418E-1,2.473076105E0,9.168969154E0
5.171473480E-1,-6.941173673E-1,2.483285189E0,9.132700920E0
5.191535980E-1,-6.897695065E-1,2.498665571E0,9.093954086E0
5.211426600E-1,-6.829603910E-1,2.506106615E0,9.059457779E0
5.231364100E-1,-6.760268211E-1,2.509918213E0,9.039050102E0
5.251364100E-1,-6.470761299E-1,2.518575668E0,9.007206917E0
5.271364100E-1,-6.122452617E-1,2.519159794E0,8.978112221E0
5.291364100E-1,-5.773665309E-1,2.519303560E0,8.963230133E0
5.311379730E-1,-5.310435295E-1,2.504536152E0,8.958154678E0
5.331364100E-1,-4.744254351E-1,2.488418102E0,8.977375031E0
5.351364100E-1,-4.225861728E-1,2.466487646E0,8.996385574E0
5.371457850E-1,-3.623959422E-1,2.451049566E0,9.020805359E0
5.391410980E-1,-3.040348887E-1,2.425335884E0,9.073287010E0
5.411364100E-1,-2.469475418E-1,2.403749704E0,9.137087822E0
5.431364100E-1,-2.014768720E-1,2.383418322E0,9.213682175E0
5.451426600E-1,-1.666172743E-1,2.375383377E0,9.303072929E0
5.471520350E-1,-1.268926859E-1,2.355980635E0,9.396312714E0
5.491379730E-1,-1.053831801E-1,2.337621927E0,9.480684280E0
5.511442230E-1,-9.385270625E-2,2.329041004E0,9.570821762E0
5.531520350E-1,-8.155608177E-2,2.308719158E0,9.659732819E0
5.551426600E-1,-9.150638431E-2,2.291796923E0,9.745607376E0
5.571489100E-1,-1.081029996E-1,2.277604103E0,9.837363243E0
5.591426600E-1,-1.287314296E-1,2.259446621E0,9.903451920E0
5.611364100E-1,-1.471380591E-1,2.249141932E0,9.973181725E0
5.631364100E-1,-1.772283912E-1,2.230687141E0,1.002896595E1
5.651364100E-1,-1.954913586E-1,2.233407259E0,1.008718395E1
5.671364100E-1,-2.332622856E-1,2.210470676E0,1.014188671E1
5.691364100E-1,-2.648465931E-1,2.189210176E0,1.017386341E1
5.711364100E-1,-3.042455614E-1,2.175237656E0,1.020573425E1
5.732285980E-1,-3.473220468E-1,2.160968304E0,1.022224522E1
5.751520350E-1,-3.865486383E-1,2.159531832E0,1.023276043E1
5.771364100E-1,-4.174625874E-1,2.164770126E0,1.025241184E1
5.791379730E-1,-4.598591030E-1,2.152463913E0,1.025833988E1
5.811395350E-1,-4.894131422E-1,2.150232553E0,1.025742054E1
5.831473480E-1,-5.515761971E-1,2.152080774E0,1.024775791E1
5.851364100E-1,-6.125230193E-1,2.155719995E0,1.023554802E1
5.871457850E-1,-6.603208184E-1,2.161456585E0,1.020932579E1
5.891879730E-1,-7.058681250E-1,2.172019720E0,1.017952347E1
5.911379730E-1,-7.797531486E-1,2.177555084E0,1.012594986E1
5.931535980E-1,-8.340728283E-1,2.178101063E0,1.006619167E1
5.951379730E-1,-8.610507250E-1,2.182937145E0,1.000536919E1
5.971473480E-1,-8.665286303E-1,2.184584379E0,9.950225830E0
5.991364100E-1,-8.661072254E-1,2.187141657E0,9.853012085E0
6.011692230E-1,-8.549119830E-1,2.194142103E0,9.806496620E0
6.031364100E-1,-8.084740639E-1,2.232238770E0,9.722039223E0
6.051395350E-1,-7.564049363E-1,2.268965721E0,9.658688545E0
6.071520350E-1,-7.235277891E-1,2.310768604E0,9.621004105E0
6.091364100E-1,-6.950463057E-1,2.345886707E0,9.579709053E0
6.111489100E-1,-6.860249639E-1,2.356574535E0,9.576701164E0
6.131660980E-1,-6.948356032E-1,2.383858681E0,9.561445236E0
6.151395350E-1,-6.961093545E-1,2.401374817E0,9.549427032E0
6.171442230E-1,-7.105894685E-1,2.424023867E0,9.537561417E0
6.191364100E-1,-7.212676406E-1,2.422405481E0,9.510046959E0
6.211442230E-1,-7.311030030E-1,2.410271406E0,9.466490746E0
6.231364100E-1,-7.431218624E-1,2.393454552E0,9.433997154E0
6.251364100E-1,-7.575349808E-1,2.347754240E0,9.395949364E0
6.271364100E-1,-7.820612192E-1,2.292965412E0,9.355334282E0
6.291379730E-1,-8.191617727E-1,2.226032972E0,9.318558693E0
6.311364100E-1,-8.565878868E-1,2.156898022E0,9.293706894E0
6.331410980E-1,-8.760862947E-1,2.113553524E0,9.268548965E0
6.351364100E-1,-9.014648199E-1,2.097483397E0,9.273862839E0
6.371379730E-1,-9.255983829E-1,2.086000919E0,9.295899391E0
6.391379730E-1,-9.323213100E-1,2.096516371E0,9.350861549E0
6.411364100E-1,-9.236351252E-1,2.217059612E0,9.471385956E0
6.431364100E-1,-8.926158547E-1,2.258498192E0,9.536334991E0
6.451364100E-1,-8.771014214E-1,2.286366940E0,9.588912010E0
6.471364100E-1,-8.427494764E-1,2.300866127E0,9.628301620E0
6.491364100E-1,-8.062617779E-1,2.303020954E0,9.663390160E0
6.511379730E-1,-7.420301437E-1,2.302494049E0,9.710211754E0
6.531364100E-1,-6.793786883E-1,2.293971062E0,9.756639481E0
6.551364100E-1,-6.058000326E-1,2.279193878E0,9.794775009E0
6.571379730E-1,-5.246749520E-1,2.260270119E0,9.831357956E0
6.591520350E-1,-4.425825477E-1,2.232899666E0,9.868775368E0
6.611364100E-1,-3.366151750E-1,2.209100962E0,9.916621208E0
6.631504730E-1,-2.743180394E-1,2.184670687E0,9.939825058E0
6.651426600E-1,-2.083147019E-1,2.170382023E0,9.946624756E0
6.671598480E-1,-1.478275955E-1,2.161418200E0,9.967023849E0
6.691426600E-1,-8.792465925E-2,2.153335333E0,9.966678619E0
6.711442230E-1,-2.945825830E-2,2.145032167E0,9.950205803E0
6.731395350E-1,1.838746853E-2,2.149245977E0,9.922070503E0
6.751364100E-1,6.788998097E-2,2.142532825E0,9.895293236E0
6.771364100E-1,1.176893786E-1,2.125380516E0,9.847476959E0
6.791379730E-1,1.651424617E-1,2.126089334E0,9.791002274E0
6.811364100E-1,2.290101796E-1,2.120802879E0,9.723513603E0
6.831364100E-1,2.848716974E-1,2.107539177E0,9.642408371E0
