"Time (s)","Acceleration x (m/s^2)","Acceleration y (m/s^2)","Acceleration z (m/s^2)"
1.238193600E-2,-1.594538331E0,4.956296921E0,7.743147373E0
1.440893600E-2,-1.606509328E0,4.951508522E0,7.489362240E0
1.642243600E-2,-1.616086125E0,4.946720123E0,7.285854816E0
1.843143600E-2,-1.623268723E0,4.944325924E0,7.123049259E0
2.043818600E-2,-1.654393315E0,4.908412933E0,7.199663639E0
2.244358600E-2,-1.678335428E0,4.867412090E0,7.271489620E0
2.444808600E-2,-1.695094824E0,4.826710701E0,7.350498676E0
2.645194300E-2,-1.709460020E0,4.790797710E0,7.422324657E0
2.845531800E-2,-1.719036818E0,4.750096321E0,7.494150639E0
3.045831800E-2,-1.721431017E0,4.711789131E0,7.568370819E0
3.246101800E-2,-1.695094824E0,4.666299343E0,7.666532993E0
3.446110800E-2,-1.673547029E0,4.630385876E0,7.745541573E0
3.646119100E-2,-1.656787634E0,4.601655483E0,7.810185432E0
3.846372900E-2,-1.637633920E0,4.572925091E0,7.867646217E0
4.046565700E-2,-1.616086125E0,4.546588898E0,7.917924404E0
4.246752300E-2,-1.589749932E0,4.522646904E0,7.970596790E0
4.446927300E-2,-1.553836942E0,4.501099110E0,8.018480301E0
4.647092000E-2,-1.517923832E0,4.479551315E0,8.066365242E0
4.847247500E-2,-1.479616642E0,4.455609322E0,8.109460831E0
5.047394800E-2,-1.436521053E0,4.436455727E0,8.150161743E0
5.247534800E-2,-1.393425345E0,4.422090530E0,8.183680534E0
5.447668100E-2,-1.338358760E0,4.405331135E0,8.212410927E0
5.647795300E-2,-1.280897856E0,4.390965939E0,8.233959198E0
5.847912600E-2,-1.225831270E0,4.378994942E0,8.253112793E0
6.048025100E-2,-1.165976286E0,4.371812344E0,8.267477989E0
6.248133100E-2,-1.103726983E0,4.364629745E0,8.281843185E0
6.448236900E-2,-1.043871999E0,4.357447147E0,8.296208382E0
6.648336900E-2,-9.816226959E-1,4.347870350E0,8.303390503E0
6.848433300E-2,-9.193734527E-1,4.333505154E0,8.308178902E0
7.048526400E-2,-8.643068075E-1,4.321534157E0,8.312967300E0
7.248619700E-2,-7.829039693E-1,4.299986362E0,8.324938774E0
7.448536300E-2,-7.086837292E-1,4.278438568E0,8.334515572E0
7.648452900E-2,-6.512228847E-1,4.261679173E0,8.341697693E0
7.848452900E-2,-6.033388376E-1,4.247313976E0,8.346486092E0
8.048456200E-2,-5.458779931E-1,4.228160381E0,8.351274490E0
8.248459500E-2,-4.955997467E-1,4.209006786E0,8.356062889E0
8.448462800E-2,-4.429273009E-1,4.187458992E0,8.368034363E0
8.648466100E-2,-3.854664862E-1,4.163516521E0,8.384793282E0
8.848466100E-2,-3.327940404E-1,4.139574528E0,8.401553154E0
9.048466100E-2,-2.777273953E-1,4.113238335E0,8.420706749E0
9.248466100E-2,-2.202665508E-1,4.086902142E0,8.442254066E0
9.448552700E-2,-1.675941199E-1,4.067748547E0,8.461407661E0
9.648639300E-2,-1.173158810E-1,4.055777550E0,8.475772858E0
9.848619300E-2,-7.182604820E-2,4.046200752E0,8.490138054E0
1.004861930E-1,-3.112462163E-2,4.036623955E0,8.504503250E0
1.024861590E-1,2.394201700E-3,4.024652958E0,8.523657799E0
1.044861250E-1,3.351882473E-2,4.012681961E0,8.545205116E0
1.064860910E-1,6.224924326E-2,4.003105164E0,8.564358711E0
1.084860570E-1,9.576806426E-2,3.991134167E0,8.588300705E0
1.104860230E-1,1.316810995E-1,3.983951569E0,8.617031097E0
1.124859890E-1,1.771709323E-1,3.983951569E0,8.676886559E0
1.144850890E-1,2.130839527E-1,3.983951569E0,8.724770546E0
1.164841890E-1,2.418143749E-1,3.983951569E0,8.763077736E0
1.184843890E-1,2.657563984E-1,3.983951569E0,8.794201851E0
1.204844220E-1,2.873041928E-1,3.981557369E0,8.830115318E0
1.224844550E-1,3.016694188E-1,3.979163170E0,8.868422508E0
1.244844880E-1,3.160346150E-1,3.974374771E0,8.904335022E0
1.264845210E-1,3.280056417E-1,3.964797974E0,8.947430611E0
1.284845540E-1,3.303998411E-1,3.952826977E0,8.990526199E0
1.304845870E-1,3.256114423E-1,3.940855980E0,9.031228065E0
1.324845870E-1,3.088520169E-1,3.926490784E0,9.067141533E0
1.344854530E-1,2.777273953E-1,3.909731388E0,9.098265648E0
1.364860860E-1,2.418143749E-1,3.897760391E0,9.124602318E0
1.384860860E-1,1.891419291E-1,3.888183594E0,9.146149635E0
1.404860520E-1,1.173158810E-1,3.885789394E0,9.155726433E0
1.424860180E-1,4.548983276E-2,3.885789394E0,9.158121109E0
1.444859840E-1,-4.070143029E-2,3.888183594E0,9.150938034E0
1.464859500E-1,-1.412578970E-1,3.895366192E0,9.141361237E0
1.484859500E-1,-2.370259613E-1,3.902548790E0,9.131784439E0
1.504859500E-1,-3.399766386E-1,3.909731388E0,9.117419243E0
1.524859830E-1,-4.812345505E-1,3.921702385E0,9.098265648E0
1.544851490E-1,-5.961562395E-1,3.931279182E0,9.083900452E0
1.564843150E-1,-6.967126727E-1,3.938461781E0,9.069535255E0
1.584844480E-1,-7.781155705E-1,3.943250179E0,9.059958458E0
1.604839810E-1,-8.499416113E-1,3.948038578E0,9.050381660E0
1.624840140E-1,-9.121908545E-1,3.957615376E0,9.040804863E0
1.644840470E-1,-9.720458984E-1,3.967192173E0,9.031228065E0
1.664840800E-1,-1.022324085E0,3.974374771E0,9.021651268E0
1.684840800E-1,-1.070208192E0,3.986345768E0,9.014469147E0
1.704840800E-1,-1.110909581E0,4.003105164E0,9.007286072E0
1.724840800E-1,-1.142034173E0,4.022258759E0,9.004891396E0
1.744849460E-1,-1.168370485E0,4.043806553E0,9.007286072E0
1.764858120E-1,-1.194706678E0,4.070142746E0,9.007286072E0
1.784856120E-1,-1.211466074E0,4.094084740E0,9.009679794E0
1.804855780E-1,-1.223437071E0,4.120420933E0,9.016862869E0
1.824860110E-1,-1.228225470E0,4.146757126E0,9.033622742E0
1.844859770E-1,-1.223437071E0,4.168305397E0,9.055170059E0
1.864859430E-1,-1.211466074E0,4.185064793E0,9.079112053E0
1.884859090E-1,-1.192312479E0,4.197035789E0,9.110237122E0
1.904858750E-1,-1.161187768E0,4.199429989E0,9.150938034E0
1.924858410E-1,-1.079784989E0,4.165910721E0,9.225158691E0
1.944849410E-1,-1.015141487E0,4.139574528E0,9.285013199E0
1.964842740E-1,-9.624691010E-1,4.118026733E0,9.332897186E0
1.984842400E-1,-9.074024558E-1,4.094084740E0,9.378387451E0
2.004842730E-1,-8.475474119E-1,4.070142746E0,9.423876762E0
2.024843060E-1,-7.709329724E-1,4.041412354E0,9.471760750E0
2.044843390E-1,-6.895300746E-1,4.017470360E0,9.517251015E0
2.064843720E-1,-5.961562395E-1,3.995922565E0,9.565135002E0
2.084844050E-1,-4.955997467E-1,3.981557369E0,9.613018990E0
2.104844380E-1,-4.022258818E-1,3.971980572E0,9.651326180E0
2.124844380E-1,-3.088520169E-1,3.974374771E0,9.680056572E0
2.144852710E-1,-2.202665508E-1,3.986345768E0,9.696816444E0
2.164861040E-1,-1.484405100E-1,3.998316765E0,9.706393242E0
2.184859700E-1,-8.858546615E-2,4.017470360E0,9.701604843E0
2.204864360E-1,-4.309562966E-2,4.041412354E0,9.682451248E0
2.224864020E-1,-1.197100803E-2,4.065354347E0,9.660902977E0
2.244863680E-1,-4.788403399E-3,4.086902142E0,9.629778862E0
2.264863340E-1,-1.436521020E-2,4.103661537E0,9.593865395E0
2.284863340E-1,-3.351882473E-2,4.122815132E0,9.560346603E0
2.304863670E-1,-7.182604820E-2,4.139574528E0,9.522039413E0
2.324864000E-1,-1.651999205E-1,4.144362926E0,9.462183952E0
2.344855660E-1,-2.394201756E-1,4.149151325E0,9.414299965E0
2.364847320E-1,-2.992752194E-1,4.153939724E0,9.375992775E0
2.384838650E-1,-3.567360640E-1,4.153939724E0,9.340080261E0
2.404838980E-1,-4.094084799E-1,4.151545525E0,9.308955193E0
2.424834640E-1,-4.668693244E-1,4.149151325E0,9.280224800E0
2.444834640E-1,-5.243301988E-1,4.149151325E0,9.249100685E0
2.464834640E-1,-5.746083856E-1,4.146757126E0,9.222764015E0
2.484834640E-1,-6.177040339E-1,4.144362926E0,9.201216698E0
2.504834640E-1,-6.536170840E-1,4.144362926E0,9.184456825E0
2.524834640E-1,-6.799532771E-1,4.144362926E0,9.172486305E0
2.544843300E-1,-6.967126727E-1,4.144362926E0,9.170091629E0
2.564851960E-1,-7.038952708E-1,4.141968727E0,9.179668427E0
2.584852290E-1,-7.038952708E-1,4.139574528E0,9.191639900E0
2.604851950E-1,-6.871358752E-1,4.132391930E0,9.215581894E0
2.624851610E-1,-6.560112834E-1,4.120420933E0,9.246706009E0
2.644851270E-1,-6.224924326E-1,4.108449936E0,9.275436401E0
2.664850930E-1,-5.793967843E-1,4.084507942E0,9.308955193E0
2.684850590E-1,-5.195417404E-1,4.058171749E0,9.349657059E0
2.704850250E-1,-4.596867263E-1,4.031835556E0,9.387964249E0
2.724849910E-1,-3.256114423E-1,3.971980572E0,9.440636635E0
2.744841240E-1,-2.178723514E-1,3.919308186E0,9.483732224E0
2.764832900E-1,-1.316810995E-1,3.876212597E0,9.519645691E0
2.784824230E-1,-6.224924326E-2,3.842693806E0,9.548376083E0
2.804824560E-1,1.197100803E-2,3.809175014E0,9.567529678E0
2.824824890E-1,7.900865376E-2,3.778050184E0,9.579500198E0
2.844825220E-1,1.436520964E-1,3.746925592E0,9.579500198E0
2.864825550E-1,2.059013397E-1,3.720589399E0,9.572318077E0
2.884825880E-1,2.561795712E-1,3.699041605E0,9.560346603E0
2.904825880E-1,3.040636182E-1,3.679888010E0,9.536404610E0
2.924825540E-1,3.471592367E-1,3.658340216E0,9.500492096E0
2.944833870E-1,3.806780577E-1,3.639186621E0,9.462183952E0
2.964842200E-1,4.070142806E-1,3.624821424E0,9.407117844E0
2.984850860E-1,4.261679053E-1,3.612850428E0,9.344868660E0
3.004850520E-1,4.381389022E-1,3.600879431E0,9.285013199E0
3.024850180E-1,4.357447028E-1,3.588908434E0,9.215581894E0
3.044850180E-1,4.213795066E-1,3.579331636E0,9.141361237E0
3.064850180E-1,3.950432837E-1,3.569754839E0,9.074323654E0
3.084850180E-1,3.663128614E-1,3.562572241E0,9.004891396E0
3.104850180E-1,3.327940404E-1,3.555389643E0,8.935460091E0
3.124850180E-1,2.801215947E-1,3.541024208E0,8.846874237E0
3.144841510E-1,2.370259613E-1,3.529053211E0,8.775048256E0
3.164832840E-1,2.035071403E-1,3.519476414E0,8.717587471E0
3.184827500E-1,1.723825186E-1,3.509899616E0,8.669703484E0
3.204827500E-1,1.436520964E-1,3.500322819E0,8.629002571E0
3.224827830E-1,1.125274822E-1,3.485957623E0,8.597877502E0
3.244828160E-1,7.900865376E-2,3.466804028E0,8.578723907E0
3.264828490E-1,5.027823523E-2,3.450044632E0,8.566753387E0
3.284828820E-1,2.154781483E-2,3.428496838E0,8.564358711E0
3.304829150E-1,-2.394201700E-3,3.404554844E0,8.571541786E0
3.324829480E-1,-2.154781483E-2,3.383007050E0,8.583512306E0
3.344838480E-1,-3.591302410E-2,3.359065056E0,8.607454300E0
3.364847140E-1,-4.309562966E-2,3.335123062E0,8.640973091E0
3.384855800E-1,-4.309562966E-2,3.311181068E0,8.676886559E0
3.404855460E-1,-3.351882473E-2,3.299209833E0,8.722375870E0
3.424855120E-1,-2.154781483E-2,3.289633036E0,8.772654533E0
3.444854780E-1,-1.197100803E-2,3.284844637E0,8.820538521E0
3.464854440E-1,-2.394201700E-3,3.289633036E0,8.873210907E0
3.484854100E-1,-2.394201700E-3,3.303998232E0,8.925883293E0
3.504853760E-1,-7.182605099E-3,3.320757866E0,8.973767281E0
3.524853760E-1,-5.746084079E-2,3.359065056E0,9.038411140E0
3.544845420E-1,-1.077390760E-1,3.390189648E0,9.093477249E0
3.564837080E-1,-1.484405100E-1,3.414131641E0,9.136572838E0
3.584836080E-1,-1.819593310E-1,3.433285236E0,9.172486305E0
3.604836410E-1,-2.298433632E-1,3.447650433E0,9.206005096E0
3.624836740E-1,-2.777273953E-1,3.454833031E0,9.234735489E0
3.644837070E-1,-3.375824392E-1,3.457227230E0,9.261071205E0
3.664837400E-1,-4.046200812E-1,3.457227230E0,9.287407875E0
3.684837730E-1,-4.668693244E-1,3.452438831E0,9.311349869E0
3.704837730E-1,-5.291185975E-1,3.438073635E0,9.337685585E0
3.724837730E-1,-5.889736414E-1,3.418920040E0,9.361627579E0
3.744846390E-1,-6.416460276E-1,3.402160645E0,9.380781174E0
3.764855050E-1,-6.895300746E-1,3.387795448E0,9.399934769E0
3.784860380E-1,-7.326257229E-1,3.378218651E0,9.416694641E0
3.804860380E-1,-7.685387731E-1,3.371036053E0,9.431059837E0
3.824860040E-1,-7.924807668E-1,3.371036053E0,9.440636635E0
3.844859700E-1,-8.140285611E-1,3.373430252E0,9.440636635E0
3.864859360E-1,-8.307880163E-1,3.375824451E0,9.435848236E0
3.884859020E-1,-8.451532125E-1,3.385401249E0,9.419088364E0
3.904858680E-1,-8.571242094E-1,3.394978046E0,9.392752647E0
3.924858340E-1,-8.595184088E-1,3.399766445E0,9.318531990E0
3.944849340E-1,-8.619126081E-1,3.404554844E0,9.261071205E0
3.964840340E-1,-8.643068075E-1,3.406949043E0,9.213187218E0
3.984831340E-1,-8.643068075E-1,3.406949043E0,9.162909508E0
4.004831340E-1,-8.619126081E-1,3.402160645E0,9.112630844E0
4.024831670E-1,-8.643068075E-1,3.397372246E0,9.047987938E0
4.044832000E-1,-8.667010069E-1,3.390189648E0,8.983344078E0
4.064832330E-1,-8.714894056E-1,3.383007050E0,8.911518097E0
4.084832660E-1,-8.786720037E-1,3.375824451E0,8.834903717E0
4.104832990E-1,-8.858546019E-1,3.368641853E0,8.765471458E0
4.124833320E-1,-8.930372596E-1,3.361459255E0,8.696040154E0
4.144841980E-1,-9.026140571E-1,3.356670856E0,8.629002571E0
4.164850310E-1,-9.121908545E-1,3.354276657E0,8.569147110E0
4.184851310E-1,-9.241618514E-1,3.361459255E0,8.506897926E0
4.204850970E-1,-9.409212470E-1,3.371036053E0,8.444648743E0
4.224850630E-1,-9.600749016E-1,3.380612850E0,8.389581680E0
4.244850290E-1,-9.816226959E-1,3.392583847E0,8.334515572E0
4.264849950E-1,-1.005564690E0,3.404554844E0,8.286631584E0
4.284849610E-1,-1.027112484E0,3.414131641E0,8.245929718E0
4.304840610E-1,-1.051054597E0,3.423708439E0,8.219594002E0
4.324840940E-1,-1.082179189E0,3.421314240E0,8.224382401E0
4.344832600E-1,-1.106121182E0,3.418920040E0,8.229170799E0
4.364824260E-1,-1.125274777E0,3.416525841E0,8.236352921E0
4.384817590E-1,-1.139639974E0,3.414131641E0,8.243535995E0
4.404817920E-1,-1.154005170E0,3.411737442E0,8.267477989E0
4.424813920E-1,-1.165976286E0,3.406949043E0,8.298602104E0
4.444814250E-1,-1.182735682E0,3.397372246E0,8.346486092E0
4.464814580E-1,-1.204283476E0,3.390189648E0,8.413523674E0
4.484814580E-1,-1.223437071E0,3.378218651E0,8.485349655E0
4.504814580E-1,-1.242590666E0,3.363853455E0,8.576330185E0
4.524814580E-1,-1.264138460E0,3.347094059E0,8.684068680E0
4.544820240E-1,-1.288080573E0,3.332728863E0,8.787019730E0
4.564828900E-1,-1.312022567E0,3.315969467E0,8.899546623E0
4.584837900E-1,-1.335964561E0,3.299209833E0,9.014469147E0
4.604837900E-1,-1.355118155E0,3.284844637E0,9.117419243E0
4.624837560E-1,-1.376665950E0,3.270479441E0,9.215581894E0
4.644837220E-1,-1.400607944E0,3.246537447E0,9.304166794E0
4.664836880E-1,-1.419761658E0,3.222595453E0,9.378387451E0
4.684836540E-1,-1.434126854E0,3.201047659E0,9.443030357E0
4.704836200E-1,-1.443703651E0,3.179499865E0,9.498097420E0
4.724835860E-1,-1.422155857E0,3.162740469E0,9.557952881E0
4.744826860E-1,-1.403002143E0,3.150769472E0,9.605836868E0
4.764818190E-1,-1.388636947E0,3.141192675E0,9.644144058E0
4.784816850E-1,-1.376665950E0,3.134010077E0,9.675268173E0
4.804817180E-1,-1.352723956E0,3.131615877E0,9.703998566E0
4.824817510E-1,-1.309628367E0,3.124433279E0,9.708786964E0
4.844817840E-1,-1.249773264E0,3.107673883E0,9.658509254E0
4.864818170E-1,-1.137245774E0,3.069366693E0,9.452607155E0
4.884818500E-1,-9.768342972E-1,2.997540474E0,9.007286072E0
4.904827830E-1,-8.020575643E-1,2.908955097E0,8.459013939E0
4.924827830E-1,-5.003881454E-1,2.774879694E0,7.537246227E0
4.944836160E-1,-2.873042040E-2,2.612074137E0,6.342539787E0
4.964844490E-1,4.405331016E-1,2.446874142E0,5.284302235E0
4.984851150E-1,8.978256583E-1,2.255337954E0,4.560954094E0
5.004850810E-1,1.185129881E0,2.080561161E0,4.434061527E0
5.024854810E-1,1.335964561E0,1.941697598E0,4.611232281E0
5.044854470E-1,1.271321058E0,1.845929503E0,5.257966042E0
5.064854130E-1,1.084573388E0,1.790862918E0,6.093542576E0
5.084860790E-1,9.026140571E-1,1.757344007E0,6.847716331E0
5.104861120E-1,7.565677166E-1,1.738190413E0,7.496544838E0
5.124861450E-1,8.283938169E-1,1.769315004E0,7.781454563E0
5.144856110E-1,8.858546019E-1,1.793257117E0,8.008903503E0
5.164847770E-1,9.624691010E-1,1.821987510E0,8.147768021E0
5.184839100E-1,1.024718285E0,1.843535304E0,8.257901192E0
5.204839430E-1,1.106121182E0,1.872265697E0,8.310573578E0
5.224839760E-1,1.252167463E0,1.917755604E0,8.308178902E0
5.244840090E-1,1.453280449E0,1.968033791E0,8.298602104E0
5.264840090E-1,1.656787634E0,2.013523579E0,8.300996780E0
5.284840090E-1,1.889025092E0,2.051830769E0,8.346486092E0
5.304840090E-1,2.104503393E0,2.059013367E0,8.468590736E0
5.324840090E-1,2.272097349E0,2.039859772E0,8.626607895E0
5.344848750E-1,2.365471363E0,1.946485996E0,8.877999306E0
5.364857410E-1,2.387019157E0,1.783680320E0,9.177274704E0
5.384858740E-1,2.396595955E0,1.632845521E0,9.431059837E0
5.404858400E-1,2.442085743E0,1.556231141E0,9.565135002E0
5.424858060E-1,2.564189911E0,1.620874524E0,9.529222488E0
5.444857720E-1,2.698265314E0,1.738190413E0,9.440636635E0
5.464857380E-1,2.827552319E0,1.932120800E0,9.299378395E0
5.484857040E-1,2.865859509E0,2.126051188E0,9.174880028E0
5.504856700E-1,2.832340717E0,2.279279947E0,9.086295128E0
5.524856360E-1,2.401384354E0,2.308010340E0,9.162909508E0
5.544847690E-1,2.015917778E0,2.324769735E0,9.246706009E0
5.564839020E-1,1.707065821E0,2.336740971E0,9.313743591E0
5.584830680E-1,1.460463047E0,2.346317768E0,9.366415977E0
5.604831010E-1,1.247379065E0,2.377442360E0,9.435848236E0
5.624831340E-1,1.120486379E0,2.425326347E0,9.502885818E0
5.644831670E-1,1.048660398E0,2.501940727E0,9.584288597E0
5.664832000E-1,1.034295082E0,2.595314741E0,9.682451248E0
5.684825660E-1,1.048660398E0,2.681505919E0,9.794978142E0
5.704825660E-1,1.079784989E0,2.774879694E0,9.895534515E0
5.724825320E-1,1.165976286E0,2.870647907E0,9.976937294E0
5.744833650E-1,1.333570361E0,2.956839085E0,1.001524544E1
5.764841980E-1,1.517923832E0,3.038241863E0,1.002242756E1
5.784850640E-1,1.764526606E0,3.088520288E0,9.976937294E0
5.804861970E-1,2.047042370E0,3.100491285E0,9.912294388E0
5.824861630E-1,2.303221941E0,3.088520288E0,9.862015724E0
5.844861290E-1,2.528276920E0,3.021482468E0,9.871592522E0
5.864861290E-1,2.676717520E0,2.901772499E0,9.962572098E0
5.884861620E-1,2.774879694E0,2.772485495E0,1.007031155E1
5.904861950E-1,2.827552319E0,2.614468336E0,1.019002151E1
5.924862280E-1,2.920926094E0,2.444479942E0,1.017086792E1
5.944853940E-1,2.995146275E0,2.308010340E0,1.015650272E1
5.964845600E-1,3.055001259E0,2.200271368E0,1.014453220E1
5.984844600E-1,3.117250681E0,2.123656988E0,1.011340714E1
6.004844930E-1,3.174711466E0,2.073378563E0,1.007031155E1
6.024845260E-1,3.220201254E0,2.061407566E0,1.001524544E1
6.044845260E-1,3.246537447E0,2.075772762E0,9.957783699E0
6.064845260E-1,3.258508444E0,2.099714994E0,9.907505989E0
6.084845260E-1,3.239354849E0,2.130839586E0,9.854833603E0
6.104845260E-1,3.198653460E0,2.159569979E0,9.775824547E0
6.124845260E-1,3.153163671E0,2.181117773E0,9.694421768E0
6.144853920E-1,3.098097086E0,2.188300371E0,9.586683273E0
6.164862580E-1,3.055001259E0,2.193088770E0,9.455001831E0
6.184870910E-1,3.023876667E0,2.202665567E0,9.323320389E0
6.204870570E-1,3.011905670E0,2.229001760E0,9.167697906E0
6.224870230E-1,3.009511471E0,2.252943754E0,9.012074471E0
6.244869890E-1,3.007117271E0,2.274491549E0,8.870816231E0
6.264869550E-1,3.004723072E0,2.300827742E0,8.724770546E0
6.284869210E-1,2.987963676E0,2.322375536E0,8.578723907E0
6.304868870E-1,2.968810081E0,2.339135170E0,8.447042465E0
6.324868870E-1,2.882618904E0,2.348711967E0,8.253112793E0
6.344860200E-1,2.801215887E0,2.351106167E0,8.087912560E0
6.364851860E-1,2.736572504E0,2.353500366E0,7.956231594E0
6.384848520E-1,2.686294317E0,2.355894566E0,7.850886822E0
6.404837180E-1,2.619256735E0,2.346317768E0,7.747935772E0
6.424837510E-1,2.557007313E0,2.334346771E0,7.661744595E0
6.444837840E-1,2.499546528E0,2.317587137E0,7.594707012E0
6.464838170E-1,2.444479942E0,2.308010340E0,7.556399822E0
6.484838170E-1,2.406172752E0,2.300827742E0,7.539640427E0
6.504838170E-1,2.387019157E0,2.303221941E0,7.563582420E0
6.524837830E-1,2.375048161E0,2.312798738E0,7.613860607E0
6.544846160E-1,2.360682964E0,2.327163935E0,7.668927193E0
6.564854490E-1,2.343923569E0,2.351106167E0,7.745541573E0
6.584855490E-1,2.319981337E0,2.377442360E0,7.826944828E0
6.604855150E-1,2.293645144E0,2.403778553E0,7.901165009E0
6.624854810E-1,2.260126352E0,2.430114746E0,7.975385189E0
6.644854810E-1,2.224213362E0,2.456450939E0,8.047211647E0
6.664855140E-1,2.190694571E0,2.477998734E0,8.111854553E0
6.684855470E-1,2.164358377E0,2.497152328E0,8.183680534E0
6.704855800E-1,2.133233786E0,2.506729126E0,8.255506516E0
6.724856130E-1,2.092532396E0,2.477998734E0,8.358457565E0
6.744847790E-1,2.059013367E0,2.456450939E0,8.442254066E0
6.764839450E-1,2.032677174E0,2.437297344E0,8.509291649E0
6.784838450E-1,2.008735180E0,2.413355350E0,8.566753387E0
6.804838780E-1,1.991975784E0,2.384624958E0,8.617031097E0
6.824838780E-1,1.989581585E0,2.351106167E0,8.667309761E0
6.844838780E-1,1.999158382E0,2.327163935E0,8.712799072E0
6.864838780E-1,2.047042370E0,2.310404539E0,8.758289337E0
6.884838780E-1,2.135627985E0,2.305616140E0,8.803778648E0
6.904838780E-1,2.233790159E0,2.303221941E0,8.842085838E0
6.924838780E-1,2.360682964E0,2.315192938E0,8.875604630E0
6.944847440E-1,2.497152328E0,2.331952572E0,8.909123421E0
