"Time (s)","X (rad/s)","Y (rad/s)","Z (rad/s)"
9.153541643E-3,-3.322710693E-1,-6.262851954E-1,2.281166911E-1
1.912054163E-2,-4.124722779E-1,-6.293031573E-1,2.264714092E-1
2.908754162E-2,-4.789687395E-1,-6.062415242E-1,2.247957438E-1
3.905454167E-2,-5.139701366E-1,-5.556887984E-1,2.117427737E-1
4.902054166E-2,-5.172325373E-1,-5.018023849E-1,1.786215752E-1
5.898754165E-2,-5.152837038E-1,-5.059413910E-1,1.416848600E-1
6.895454164E-2,-4.955643415E-1,-5.589113832E-1,1.028461158E-1
7.892154163E-2,-4.737814367E-1,-6.299193501E-1,4.964337498E-2
8.888854162E-2,-4.460334480E-1,-7.035685182E-1,-2.056367695E-2
9.885554167E-2,-4.383149743E-1,-7.349916101E-1,-9.369967878E-2
1.088225417E-1,-4.501220882E-1,-7.712260485E-1,-1.659001112E-1
1.187885416E-1,-4.953513443E-1,-7.835709453E-1,-2.194698602E-1
1.287555416E-1,-5.703300238E-1,-8.101662993E-1,-2.561983168E-1
1.387225416E-1,-6.549347639E-1,-8.439309001E-1,-2.784274518E-1
1.486895417E-1,-7.352109551E-1,-8.599426150E-1,-2.735139430E-1
1.586565417E-1,-7.920676470E-1,-8.417628407E-1,-2.546920478E-1
1.686235417E-1,-8.140760064E-1,-8.600044250E-1,-2.384262681E-1
1.785895416E-1,-8.150451183E-1,-8.606145978E-1,-2.269576043E-1
1.885565416E-1,-8.055711985E-1,-8.622686863E-1,-2.418798208E-1
1.985235416E-1,-8.053545356E-1,-8.705987930E-1,-2.786509097E-1
2.084905417E-1,-8.188016415E-1,-8.514397144E-1,-3.227800131E-1
2.184575417E-1,-8.778184056E-1,-7.913542986E-1,-3.652073443E-1
2.284245417E-1,-9.659264684E-1,-7.358609438E-1,-4.062695503E-1
2.383905416E-1,-1.062634468E0,-6.987697482E-1,-4.184596837E-1
2.483575416E-1,-1.146834016E0,-6.760415435E-1,-3.967109621E-1
2.583245417E-1,-1.185545564E0,-7.140650153E-1,-3.450579047E-1
2.682915417E-1,-1.171421766E0,-8.237992525E-1,-2.629113495E-1
2.782585417E-1,-1.094141006E0,-9.670782685E-1,-1.999763399E-1
2.882255416E-1,-9.803292751E-1,-9.990295172E-1,-1.911479533E-1
2.981925416E-1,-8.409495950E-1,-9.291046262E-1,-2.614884377E-1
3.081585416E-1,-7.027326226E-1,-8.384114504E-1,-3.935354054E-1
3.181255417E-1,-5.774756074E-1,-7.783128023E-1,-5.131571293E-1
3.280925417E-1,-4.853829741E-1,-7.720932364E-1,-5.884460211E-1
3.380595417E-1,-4.176311791E-1,-8.066816926E-1,-6.191528440E-1
3.480265416E-1,-3.746996820E-1,-8.633433580E-1,-5.919464827E-1
3.579935416E-1,-3.603404760E-1,-9.276750088E-1,-5.148389339E-1
3.679605416E-1,-3.636877835E-1,-9.743155241E-1,-4.038423896E-1
3.779265417E-1,-3.777275383E-1,-9.446619153E-1,-3.068298101E-1
3.878935417E-1,-4.189929664E-1,-9.030579925E-1,-2.416034043E-1
3.978605416E-1,-5.077542663E-1,-8.441923857E-1,-1.843736917E-1
4.078275416E-1,-6.156447530E-1,-4.126007557E-1,-1.789118052E-1
4.177945416E-1,-6.917340159E-1,-1.164328977E-1,-2.462681979E-1
4.277615416E-1,-7.012258172E-1,-6.825977005E-3,-4.152377844E-1
4.377285417E-1,-6.829020977E-1,-8.412217349E-2,-6.112549305E-1
4.476945417E-1,-6.656109691E-1,-1.252088845E-1,-7.521974444E-1
4.576615416E-1,-6.564092636E-1,-9.216405451E-2,-7.677018046E-1
4.676285416E-1,-6.240981817E-1,-2.001331300E-1,-6.836354136E-1
4.775955416E-1,-5.433052182E-1,-3.206476271E-1,-5.388321280E-1
4.875632916E-1,-4.337078929E-1,-3.546703160E-1,-3.948041499E-1
4.975302917E-1,-2.923354208E-1,-2.174596637E-1,-2.846118510E-1
5.074962917E-1,-1.658411026E-1,-4.781488329E-3,-2.298833728E-1
5.174632916E-1,-6.586017460E-2,8.474131674E-2,-2.153670192E-1
5.274302916E-1,-4.602575302E-2,1.152025536E-1,-1.721721441E-1
5.373972916E-1,-9.034901857E-2,-4.666746780E-2,-1.561833024E-1
5.473642916E-1,-1.675292999E-1,-2.671710849E-1,-1.718221754E-1
5.573312917E-1,-2.405841351E-1,-3.382648826E-1,-2.223772407E-1
5.672982917E-1,-2.891732454E-1,-3.428353965E-1,-2.270494998E-1
5.772652916E-1,-2.857458591E-1,-4.672108591E-1,-2.536419630E-1
5.872312916E-1,-2.550086975E-1,-5.735971928E-1,-2.476882041E-1
5.971982916E-1,-2.149450928E-1,-6.022610068E-1,-2.018509507E-1
6.071652917E-1,-1.857904047E-1,-6.245833039E-1,-1.299080551E-1
6.171322917E-1,-2.273640335E-1,-5.387802124E-1,1.043064985E-3
6.270992917E-1,-3.265404105E-1,-4.089739919E-1,1.547676325E-1
6.370662916E-1,-4.591916800E-1,-3.937276006E-1,2.899608910E-1
6.470322916E-1,-6.115601659E-1,-3.981271386E-1,3.659363389E-1
6.569992916E-1,-7.672400475E-1,-4.457364380E-1,3.749093413E-1
6.669662917E-1,-9.013272524E-1,-6.215361953E-1,3.384104371E-1
6.769332917E-1,-1.002089143E0,-8.436301947E-1,2.920152247E-1
6.869002917E-1,-1.039556742E0,-1.003655791E0,2.404236794E-1
6.968672916E-1,-1.009102464E0,-1.116170406E0,1.753525436E-1
7.068342916E-1,-9.287914038E-1,-1.096488833E0,1.488988250E-1
7.168002917E-1,-8.083314896E-1,-1.036954165E0,1.542126387E-1
7.267672917E-1,-6.897992492E-1,-9.849610329E-1,1.738135070E-1
7.367342917E-1,-5.871689320E-1,-8.507761359E-1,1.999636143E-1
7.467012916E-1,-5.052577853E-1,-7.592926025E-1,1.648509055E-1
7.566682916E-1,-4.368205070E-1,-7.491793036E-1,6.763058901E-2
7.666352916E-1,-3.709035218E-1,-7.246769071E-1,-7.977537066E-2
7.766022916E-1,-3.201244175E-1,-7.263843417E-1,-1.603431851E-1
7.865682917E-1,-2.944888175E-1,-8.019301891E-1,-4.748188332E-2
7.965352917E-1,-2.731541395E-1,-8.999162912E-1,1.719263792E-1
8.065022916E-1,-2.331470847E-1,-9.011224508E-1,3.043568730E-1
8.164692916E-1,-1.685245037E-1,-7.327950001E-1,2.831967175E-1
8.264362916E-1,-7.737036049E-2,-5.092144012E-1,2.127739340E-1
8.364032917E-1,2.785379998E-2,-3.330834210E-1,1.544605494E-1
8.463702917E-1,1.418189853E-1,-2.155464143E-1,1.418451518E-1
8.563362916E-1,2.744238079E-1,-1.981401145E-1,1.630405039E-1
8.663032916E-1,4.314712286E-1,-1.523161680E-1,1.926780194E-1
8.762702916E-1,5.775514245E-1,-3.334088996E-2,2.049021721E-1
8.862372916E-1,7.114495635E-1,2.838718891E-2,2.358017713E-1
8.962042917E-1,8.292564154E-1,-2.563660964E-4,3.129875958E-1
9.061712917E-1,9.420024157E-1,-1.665291563E-2,4.406856596E-1
9.161382916E-1,1.053534389E0,5.675227195E-2,5.699867010E-1
9.261042916E-1,1.157335877E0,1.306800246E-1,6.815505028E-1
9.360712916E-1,1.244181752E0,2.369876504E-1,7.444493175E-1
9.460382917E-1,1.303318024E0,2.892817259E-1,7.760319710E-1
9.560052917E-1,1.338226914E0,3.137957752E-1,7.925566435E-1
9.659722917E-1,1.351779461E0,3.149015307E-1,8.166337609E-1
9.759392916E-1,1.357714176E0,3.049750626E-1,8.538082838E-1
9.859062916E-1,1.348323107E0,3.136620522E-1,9.032669067E-1
9.958722916E-1,1.352847934E0,3.234950602E-1,9.526515007E-1
1.005839292E0,1.373554587E0,4.113266468E-1,1.010083556E0
1.015806292E0,1.428960443E0,4.991718829E-1,1.067917347E0
1.025773292E0,1.416044950E0,4.410348237E-1,1.030506611E0
1.035740292E0,1.152277589E0,1.717902273E-1,7.997538447E-1
1.045707292E0,6.733762622E-1,-1.535878628E-1,4.408920407E-1
1.055674292E0,1.886984259E-1,-4.291113317E-1,1.162705794E-1
1.065640292E0,-1.408515126E-1,-6.231907606E-1,-5.996224284E-2
1.075607292E0,-3.347818553E-1,-7.418061495E-1,-7.698037475E-2
1.085574292E0,-4.281544089E-1,-7.087723017E-1,1.375298668E-2
1.095541292E0,-4.615975022E-1,-5.336250067E-1,1.294641495E-1
1.105508292E0,-4.550932646E-1,-3.761205971E-1,2.054672986E-1
1.115475292E0,-4.038965404E-1,-2.959982455E-1,2.028848231E-1
1.125442292E0,-2.985062003E-1,-2.959585786E-1,1.659321338E-1
1.135408292E0,-1.964662969E-1,-4.856779873E-1,1.146569625E-1
1.145375292E0,-1.635243297E-1,-7.148744464E-1,7.748083025E-2
1.155342292E0,-2.227222323E-1,-9.026218057E-1,6.861650944E-2
1.165309292E0,-3.531777263E-1,-1.065648198E0,3.875155374E-2
1.175276292E0,-4.607623219E-1,-1.064736962E0,-5.424152315E-2
1.185243292E0,-4.744997025E-1,-8.243025541E-1,-1.867814511E-1
1.195210292E0,-3.854076564E-1,-6.218926311E-1,-3.247249126E-1
1.205176292E0,-2.562613785E-1,-5.333161354E-1,-4.381444156E-1
1.215143292E0,-1.150074825E-1,-4.775350690E-1,-5.395658612E-1
1.225110292E0,-1.224275492E-2,-4.550137818E-1,-5.981695056E-1
1.235077292E0,6.338232011E-2,-4.363312125E-1,-5.939516425E-1
1.245044292E0,1.369864941E-1,-3.149147630E-1,-5.726378560E-1
1.255011292E0,1.968288869E-1,-1.099335924E-1,-5.398731828E-1
1.264978292E0,2.060042769E-1,5.404715426E-3,-5.235162973E-1
1.274944292E0,1.445013136E-1,5.119321495E-2,-5.796062350E-1
1.284911292E0,4.428949580E-2,8.536422998E-2,-6.352012753E-1
1.294878292E0,-1.122409031E-1,-1.893018931E-2,-6.276211739E-1
1.304845292E0,-2.634069920E-1,-1.954700649E-1,-5.701621175E-1
1.314812292E0,-3.191991448E-1,-3.151632845E-1,-5.056579709E-1
1.324779292E0,-2.515237033E-1,-4.375504553E-1,-4.816828370E-1
1.334746292E0,-3.830240667E-2,-5.548564196E-1,-4.827713072E-1
1.344712292E0,2.217171937E-1,-6.020308733E-1,-4.901594520E-1
1.354679292E0,3.887941539E-1,-5.102460384E-1,-4.346285462E-1
1.364646292E0,3.980145454E-1,-4.343214035E-1,-3.632960618E-1
1.374613292E0,2.763365805E-1,-3.393258452E-1,-3.214212954E-1
1.384580292E0,1.754736155E-1,-1.672659218E-1,-2.694827318E-1
1.394547292E0,1.114304513E-1,-9.606503695E-2,-2.078971416E-1
1.404514292E0,7.120393962E-2,-1.560277045E-1,-1.607253700E-1
1.414480292E0,5.360247940E-2,-1.861003339E-1,-1.128246561E-1
1.424447292E0,7.054391503E-2,-8.282668889E-2,-6.839753687E-2
1.434414292E0,1.017340571E-1,6.782912463E-2,-6.625318527E-2
1.444381292E0,1.479161978E-1,1.765590608E-1,-7.947578281E-2
1.454348292E0,1.969181895E-1,1.592088640E-1,-9.244190902E-2
1.464315292E0,2.371087521E-1,1.004067883E-1,-1.044849902E-1
1.474282292E0,2.631199956E-1,4.925571755E-2,-1.029669642E-1
1.484249292E0,2.759977281E-1,-6.509669125E-2,-8.182466030E-2
1.494215167E0,2.772868872E-1,-1.913343370E-1,-7.211239636E-2
1.504182167E0,2.546763718E-1,-2.560946941E-1,-5.897688866E-2
1.514149167E0,1.951336861E-1,-2.509004176E-1,-4.766004533E-2
1.524116167E0,1.045971364E-1,-1.938650906E-1,-5.099085718E-2
1.534083167E0,-1.929711364E-2,-1.094622687E-1,-7.799983770E-2
1.544050167E0,-1.606126875E-1,-2.375775017E-2,-1.361358464E-1
1.554017167E0,-2.917789817E-1,1.539737545E-2,-2.027604133E-1
1.563983167E0,-3.924208879E-1,4.599256814E-2,-2.464533001E-1
1.573950167E0,-4.619800746E-1,3.402390704E-2,-2.617305517E-1
1.583917167E0,-4.882127345E-1,-5.415175855E-2,-2.638235092E-1
1.593884167E0,-4.689190388E-1,-2.307512313E-1,-2.630786300E-1
1.603851167E0,-3.980219662E-1,-4.364889264E-1,-2.764338553E-1
1.613818167E0,-2.900129557E-1,-5.896580815E-1,-3.152819276E-1
1.623785167E0,-1.835522801E-1,-6.763839126E-1,-3.823325932E-1
1.633751167E0,-1.255236864E-1,-7.015932798E-1,-4.290462732E-1
1.643718167E0,-1.203978956E-1,-7.090349197E-1,-4.135426879E-1
1.653685167E0,-1.804860085E-1,-7.572979331E-1,-3.705795109E-1
1.663652167E0,-2.680909634E-1,-9.243122339E-1,-3.243648708E-1
1.673619167E0,-3.570061922E-1,-1.129537225E0,-3.055040836E-1
1.683586167E0,-4.059830606E-1,-8.647302389E-1,-2.871839404E-1
1.693553167E0,-4.371945858E-1,-4.740394354E-1,-2.131848335E-1
1.703519167E0,-4.587153196E-1,-1.360869706E-1,-1.074054092E-1
1.713486167E0,-4.512806535E-1,2.076004297E-1,-3.489445895E-2
1.723453167E0,-4.628467560E-1,2.891136408E-1,-1.903217752E-3
1.733420167E0,-4.295232594E-1,1.773810238E-1,3.400364518E-2
1.743387167E0,-3.533885479E-1,1.151991561E-1,1.432068348E-1
1.753354167E0,-3.122902811E-1,1.060475782E-1,3.856817782E-1
1.763321167E0,-3.514360785E-1,1.882473677E-1,7.652754188E-1
1.773287167E0,-4.518239498E-1,2.153528929E-1,1.174709558E0
1.783254167E0,-5.487960577E-1,-1.829688624E-2,1.537589431E0
1.793221167E0,-5.359917879E-1,-3.566368520E-1,1.880468011E0
1.803188167E0,-3.791683912E-1,-7.095456123E-1,2.130785227E0
1.813155167E0,-1.060720459E-1,-1.098847270E0,2.142122507E0
1.823122167E0,1.652723700E-1,-1.492188334E0,1.793501139E0
1.833089167E0,3.378337622E-1,-1.646952033E0,1.172841907E0
1.843055167E0,4.114821553E-1,-1.517150879E0,5.343876481E-1
1.853022167E0,4.245477915E-1,-1.244106293E0,1.843276471E-1
1.862989167E0,3.798303902E-1,-1.035733104E0,1.178695187E-1
1.872956167E0,2.265620083E-1,-1.017585993E0,1.535710543E-1
1.882923167E0,-3.509915620E-2,-1.040898323E0,1.406856179E-1
1.892890167E0,-2.866854966E-1,-9.427872896E-1,4.924144968E-2
1.902857167E0,-4.395000637E-1,-8.572593331E-1,-4.574471712E-2
1.912823167E0,-4.477830529E-1,-8.061512709E-1,-5.708443746E-2
1.922790167E0,-3.488996029E-1,-7.687175870E-1,-2.665009722E-2
1.932757167E0,-1.949289441E-1,-8.678739071E-1,1.275004819E-2
1.942724167E0,-7.836931199E-2,-1.198025942E0,1.625316963E-2
1.952691167E0,-2.420292236E-2,-1.690471649E0,-2.098049782E-2
1.962658167E0,-7.152675837E-2,-2.061219215E0,-8.651396632E-2
1.972625167E0,-2.576791644E-1,-2.185465336E0,-1.311743855E-1
1.982591167E0,-5.846391916E-1,-1.994403362E0,-8.272214979E-2
1.992558167E0,-9.667244554E-1,-1.663131714E0,8.182123303E-2
2.002525167E0,-1.258750200E0,-1.559896946E0,3.475508988E-1
2.012492167E0,-1.367565513E0,-1.702144265E0,5.727313161E-1
2.022459167E0,-1.279116154E0,-1.985151768E0,6.898496747E-1
2.032426167E0,-1.021527290E0,-2.427145958E0,7.410332561E-1
2.042393167E0,-6.491960883E-1,-3.007760286E0,8.187962174E-1
2.052359167E0,-2.616189420E-1,-3.544793367E0,9.440079331E-1
2.062326167E0,4.660014436E-2,-3.959525347E0,1.117065907E0
2.072293167E0,2.058562934E-1,-4.205225945E0,1.338643074E0
2.082260167E0,1.216223687E-1,-4.184875011E0,1.589482188E0
2.092227167E0,-2.195379734E-1,-3.991215944E0,1.811709166E0
2.102194167E0,-6.613398790E-1,-3.800491095E0,1.996257186E0
2.112161167E0,-9.507064819E-1,-3.608665705E0,2.122728348E0
2.122127167E0,-9.860072136E-1,-3.443803310E0,2.246939659E0
2.132094167E0,-8.914791942E-1,-3.395771265E0,2.395398855E0
2.142061167E0,-8.841592073E-1,-3.335463047E0,2.558663845E0
2.152028167E0,-1.110781193E0,-3.236003399E0,2.727994680E0
2.161995167E0,-1.455827594E0,-3.059346914E0,2.862494707E0
2.171962167E0,-1.735772848E0,-2.837256670E0,2.893247128E0
2.181929167E0,-1.770223737E0,-2.714699268E0,2.876560926E0
2.191895167E0,-1.507878900E0,-2.784536600E0,2.835703611E0
2.201862167E0,-1.026809216E0,-3.093516350E0,2.724292755E0
2.211829167E0,-4.387955964E-1,-3.588674068E0,2.607256174E0
2.221796167E0,1.534696072E-1,-4.074693680E0,2.578009129E0
2.231763167E0,6.279098988E-1,-4.465450287E0,2.701275826E0
2.241730167E0,9.392376542E-1,-4.600286484E0,2.940932751E0
2.251697167E0,1.084658861E0,-4.451674938E0,3.224613905E0
2.261664167E0,1.071848512E0,-4.092639923E0,3.474590778E0
2.271630167E0,9.853506684E-1,-3.631678820E0,3.589714766E0
2.281597167E0,9.131034017E-1,-3.195069790E0,3.528504372E0
2.291564167E0,8.918329477E-1,-2.800752640E0,3.338537455E0
2.301531167E0,9.171189070E-1,-2.545222759E0,3.086606264E0
2.311498167E0,9.948106408E-1,-2.419660091E0,2.841974258E0
2.321465167E0,1.063408971E0,-2.269651890E0,2.636848688E0
2.331432167E0,1.109439969E0,-1.939279437E0,2.417993546E0
2.341398167E0,1.105522394E0,-1.462061524E0,2.176583767E0
2.351365167E0,1.013308406E0,-8.850204349E-1,1.933591127E0
2.361332167E0,8.493010998E-1,-3.337804377E-1,1.710339904E0
2.371299167E0,6.956453323E-1,1.444954276E-1,1.518149495E0
2.381266167E0,5.624715686E-1,4.395438433E-1,1.315570235E0
2.391233167E0,5.254911780E-1,6.374392509E-1,1.052173972E0
2.401200167E0,5.671808124E-1,7.992627621E-1,7.510302067E-1
2.411166167E0,6.080492139E-1,8.575847745E-1,5.169053078E-1
2.421133167E0,6.242417693E-1,8.954671621E-1,4.390597939E-1
2.431100167E0,6.188799739E-1,9.695714116E-1,4.842555225E-1
2.441067167E0,5.809917450E-1,9.905115366E-1,5.227075815E-1
2.451034167E0,5.748893023E-1,8.413102031E-1,5.253546834E-1
2.461001167E0,6.391324401E-1,5.570523739E-1,5.148929954E-1
2.470968167E0,7.930302024E-1,7.322348654E-2,6.178221107E-1
2.480934167E0,9.503801465E-1,-3.266826272E-1,6.362456083E-1
2.490902167E0,9.365172386E-1,-5.611054897E-1,5.406476855E-1
2.500869167E0,8.851019740E-1,-7.201979160E-1,4.687787890E-1
2.510836167E0,7.724893093E-1,-5.987421274E-1,3.805456460E-1
2.520803167E0,5.650493503E-1,-3.559857011E-1,2.228452116E-1
2.530770167E0,3.646241128E-1,-1.938222647E-1,8.388304710E-2
2.540737167E0,2.140045017E-1,-5.048161373E-2,1.695435122E-2
2.550703167E0,1.245557517E-1,4.593783058E-3,3.985967487E-2
2.560670167E0,3.740194067E-2,1.612904519E-1,1.134007350E-1
2.570637167E0,-2.857530117E-2,2.423698157E-1,3.013520241E-1
2.580604167E0,1.675409824E-2,1.881273389E-1,4.433834553E-1
2.590571167E0,2.177526355E-1,2.829852514E-3,5.446373820E-1
2.600538167E0,5.214701891E-1,-1.881552786E-1,6.247468591E-1
2.610505167E0,8.330190182E-1,-2.969438434E-1,7.019189000E-1
2.620472167E0,1.172753572E0,-3.289161623E-1,8.932563663E-1
2.630438167E0,1.443066239E0,-3.629973829E-1,1.104969859E0
2.640405167E0,1.338334799E0,-9.529237747E-1,1.232680202E0
2.650372167E0,9.726558924E-1,-1.223248720E0,1.401786327E0
2.660339167E0,7.091678381E-1,-8.146894574E-1,1.552440047E0
2.670306167E0,5.267763138E-1,-3.443384767E-1,1.582107902E0
2.680273167E0,4.335270822E-1,-1.600701064E-1,1.585686207E0
2.690240167E0,4.659397006E-1,-9.319718182E-2,1.431849718E0
2.700206167E0,5.039978623E-1,1.789312251E-2,1.379585505E0
2.710173167E0,4.731345177E-1,3.918780982E-1,1.407360077E0
2.720140167E0,4.263986945E-1,8.219560385E-1,1.389937639E0
2.730107167E0,3.076699972E-1,1.087122679E0,1.261398315E0
2.740074167E0,2.466034442E-1,1.105792999E0,1.036297321E0
2.750041167E0,2.323227823E-1,1.142767787E0,9.872353077E-1
2.760008167E0,3.148802519E-1,1.172559500E0,8.070865870E-1
2.769974167E0,3.936060369E-1,8.635182977E-1,6.322641373E-1
2.779941167E0,4.274683893E-1,7.036774755E-1,6.071367264E-1
2.789908167E0,6.115127206E-1,7.799820304E-1,4.174575508E-1
2.799875167E0,6.315559149E-1,9.943209887E-1,5.281279087E-1
2.809842167E0,4.259592593E-1,1.013897538E0,3.826476336E-1
2.819809167E0,5.334780216E-1,3.314938545E-1,-5.558056012E-2
2.829776167E0,8.030707836E-1,3.777076602E-1,-1.655472666E-1
2.839742167E0,7.760064006E-1,1.126607299E0,-1.327107549E-1
2.849709167E0,5.591657162E-1,1.374091625E0,-1.120787039E-1
2.859676167E0,3.741713464E-1,1.341609597E0,-5.456933752E-2
2.869643167E0,9.153124690E-1,1.680394530E0,-2.951050103E-1
2.879610167E0,1.258022189E0,1.072758436E0,-5.127225518E-1
2.889577167E0,1.029241204E0,5.894184709E-1,-5.681663156E-1
2.899544167E0,8.472413421E-1,1.588777542E0,1.737769842E-1
2.909510167E0,3.452335298E-1,1.853859305E0,-3.259052634E-1
2.919477167E0,8.702629805E-1,4.310359061E-1,-6.705569029E-1
2.929444167E0,1.112659693E0,7.885875106E-1,-2.870718241E-1
2.939411167E0,5.468615294E-1,1.071403742E0,-6.727969050E-1
2.949378167E0,6.469973922E-1,5.511803031E-1,-6.371190548E-1
2.959345167E0,6.092435718E-1,1.542122841E0,-7.352722287E-1
2.969312167E0,4.841170907E-1,6.275430322E-1,-8.404524326E-1
2.979278167E0,1.042692780E0,1.224394202E0,-9.319261909E-1
2.989245167E0,4.372011125E-2,5.284907818E-1,-7.836285830E-1
2.999212167E0,1.679543853E0,1.158612251E0,-9.212631583E-1
3.009179167E0,9.308946729E-1,-1.974993795E-1,-1.067844152E0
3.019146167E0,7.492631078E-1,4.905011356E-1,-9.872357845E-1
3.029113167E0,1.174097657E0,1.623949647E0,-5.857770443E-1
3.039080167E0,1.133588076E0,1.280405641E0,-6.630340219E-1
3.049046167E0,1.996768236E0,5.480857491E-1,-9.277902842E-1
3.059013167E0,2.102010727E0,-7.048380375E-1,-8.277693987E-1
3.068980167E0,1.533084512E0,-1.380007029E0,-4.184809625E-1
3.078947167E0,7.292847037E-1,-1.891276479E0,-7.045764010E-3
3.088914167E0,2.924513817E-1,4.248058200E-1,5.013825893E-1
3.098881167E0,2.588896751E-1,1.026264191E0,4.926529825E-1
3.108848167E0,1.820210457E0,2.824764252E-1,3.668678179E-2
3.118814167E0,2.089154243E0,-1.774570942E-1,-1.781823784E-1
3.128781167E0,1.887865186E0,-3.186901212E-1,4.784116521E-2
3.138748167E0,1.114292502E0,-1.442378640E0,3.096506596E-1
3.148715167E0,5.417909622E-1,-2.177857399E0,4.026357532E-1
3.158682167E0,6.877872944E-1,-2.378428698E0,4.965319037E-1
3.168649167E0,5.760598183E-1,-3.127434731E0,5.958228111E-1
3.178616167E0,6.100021303E-2,-2.450622320E0,9.430585504E-1
3.188582167E0,-1.101314127E-1,-2.057638407E0,1.149946451E0
3.198549167E0,-6.328561157E-2,-2.004833698E0,1.235170484E0
3.208516167E0,2.252792008E-2,-1.845203280E0,1.346144438E0
3.218483167E0,7.359087467E-3,-1.619212985E0,1.404500365E0
3.228450167E0,-3.625585511E-2,-1.309279561E0,1.477066159E0
3.238417167E0,-5.752066523E-2,-9.369691014E-1,1.596389890E0
3.248384167E0,-4.677818716E-2,-2.603548467E-1,1.830556035E0
3.258350167E0,-4.096975327E-1,7.565875649E-1,1.759048343E0
3.268317167E0,-2.341004908E-1,-1.698341370E-1,1.621163130E0
3.278284167E0,-3.523692861E-2,-3.092791140E-1,1.714921117E0
3.288251167E0,-2.736089230E-1,-3.687872887E-1,1.936238050E0
