"Time (s)","X (m/s^2)","Y (m/s^2)","Z (m/s^2)"
3.360083327E-3,-3.205134888E0,1.620979156E0,9.084458771E0
1.339008333E-2,-3.485950928E0,2.334096222E0,9.255852356E0
2.341908333E-2,-3.470383301E0,2.734363861E0,9.398356018E0
3.344808333E-2,-3.413202209E0,2.959944763E0,9.507778473E0
4.347808333E-2,-3.550616455E0,2.964585114E0,9.534273376E0
5.350708333E-2,-3.848197632E0,2.632575531E0,9.469607849E0
6.353708333E-2,-4.157005463E0,2.309547272E0,9.632918243E0
7.356608333E-2,-4.416266327E0,2.265838165E0,9.749675446E0
8.359508333E-2,-4.648283844E0,2.390079803E0,9.773176575E0
9.362508333E-2,-4.807402954E0,2.571352844E0,9.727820892E0
1.036540833E-1,-4.855153656E0,2.749482422E0,9.552086334E0
1.136830833E-1,-4.865931244E0,2.798730011E0,9.266031189E0
1.237130833E-1,-4.935686188E0,2.639461212E0,8.951984253E0
1.337420833E-1,-5.011129303E0,2.451601868E0,8.980874176E0
1.437710833E-1,-5.125790863E0,2.467019806E0,9.266180878E0
1.538010833E-1,-5.186414795E0,2.607727203E0,9.227561188E0
1.638300833E-1,-5.174290009E0,2.575544128E0,9.088500366E0
1.738600833E-1,-5.075345764E0,2.496957550E0,9.047785034E0
1.838890833E-1,-4.827012177E0,2.422412567E0,9.016799469E0
1.939180833E-1,-4.516408081E0,2.205513611E0,8.926686859E0
2.039480833E-1,-3.993545380E0,1.847458191E0,8.877588959E0
2.139770833E-1,-3.398233337E0,1.727557526E0,8.927734680E0
2.240060833E-1,-2.837050323E0,1.646426239E0,9.160201263E0
2.340360833E-1,-2.193388824E0,1.427431641E0,9.424850922E0
2.440650833E-1,-1.684746552E0,1.269510040E0,9.587861938E0
2.540940833E-1,-1.538800049E0,1.156644745E0,9.545350342E0
2.641240833E-1,-1.540147247E0,1.070424042E0,9.302106171E0
2.741530833E-1,-1.641037445E0,1.028660889E0,9.016649780E0
2.841830833E-1,-2.002386017E0,8.842112732E-1,8.853339386E0
2.942120833E-1,-2.240989838E0,3.787124634E-1,8.865464172E0
3.042410833E-1,-1.913021851E0,-2.854563904E-1,8.594228210E0
3.142710833E-1,-1.283431091E0,-6.614744568E-1,7.909552002E0
3.243000833E-1,-5.905220032E-1,-8.913963318E-1,7.377109222E0
3.343290833E-1,-3.546125793E-1,-8.375083923E-1,7.272626495E0
3.443590833E-1,-4.472698975E-1,-4.421804810E-1,7.497159576E0
3.543880833E-1,-3.273692322E-1,6.855743408E-2,7.833959198E0
3.644170833E-1,-8.232879639E-3,6.418652344E-1,8.111631775E0
3.744470833E-1,5.553451538E-2,1.203048248E0,8.335416412E0
3.844760833E-1,-9.325607300E-2,1.291214905E0,8.601113892E0
3.945050833E-1,-1.555265808E-1,9.798623657E-1,9.022188263E0
4.045350833E-1,-2.215393066E-1,6.285429382E-1,9.134305115E0
4.145640833E-1,-2.022294617E-1,3.367996216E-1,8.838071136E0
4.245940833E-1,-1.182540894E-2,2.802172852E-1,8.755742340E0
4.346230833E-1,3.727249146E-2,4.384382629E-1,9.078321533E0
4.446520833E-1,7.274871826E-2,7.155120850E-1,9.448501740E0
4.546820833E-1,3.574566650E-1,1.106349335E0,9.713301086E0
4.647110833E-1,4.923262024E-1,1.651815033E0,9.864935760E0
4.747400833E-1,4.631369019E-1,2.115850067E0,1.001761826E1
4.847700833E-1,4.138893127E-1,2.284549255E0,1.029364426E1
4.947990833E-1,1.965412903E-1,2.177671509E0,1.065738785E1
5.048280833E-1,-1.624122620E-1,2.087558899E0,1.069031937E1
5.148580833E-1,-4.414320374E-1,1.980980530E0,1.060215271E1
5.248870833E-1,-7.198530579E-1,1.833088074E0,1.063583267E1
5.349170833E-1,-9.871971130E-1,1.789828033E0,1.064720901E1
5.449460833E-1,-1.107995911E0,1.776056671E0,1.057116714E1
5.549750833E-1,-1.065035248E0,1.801054688E0,1.033211426E1
5.650050833E-1,-9.975256348E-1,1.816023560E0,9.893526306E0
5.750340833E-1,-8.922944641E-1,1.765279083E0,9.731413422E0
5.850630833E-1,-9.503736877E-1,1.832489319E0,9.765692139E0
5.950930833E-1,-1.048569489E0,1.975292358E0,9.683962097E0
6.051220833E-1,-1.186432800E0,2.027234344E0,9.579030304E0
6.151510833E-1,-1.404678955E0,1.978286133E0,9.558223572E0
6.251810833E-1,-1.627116394E0,2.053579559E0,9.388626251E0
6.352100833E-1,-1.895657959E0,2.135159912E0,9.223070526E0
6.452390833E-1,-2.149679718E0,2.079326019E0,9.123826904E0
6.552690833E-1,-2.238295441E0,2.030677185E0,9.018146667E0
6.652980833E-1,-2.256707153E0,2.059267731E0,8.960666199E0
6.753280833E-1,-2.164947968E0,2.066003723E0,9.053323517E0
6.853570833E-1,-2.016456757E0,2.149829407E0,9.080417175E0
6.953860833E-1,-1.898352356E0,2.301164703E0,8.972042542E0
7.054160833E-1,-1.822909241E0,2.293380890E0,9.096433868E0
7.154450833E-1,-1.862726440E0,2.191442871E0,9.178612976E0
7.254780000E-1,-1.883533173E0,2.165846100E0,9.093889160E0
7.355080000E-1,-1.784888306E0,2.253863068E0,8.873397675E0
7.455370000E-1,-1.500180359E0,3.570674744E0,1.062056442E1
7.555660000E-1,-1.211730194E0,3.301384735E0,1.311827042E1
7.655960000E-1,-1.130598907E0,3.167563019E0,1.137185211E1
7.756250000E-1,-1.759890289E0,2.602188721E0,1.099074463E1
7.856550000E-1,-1.840422821E0,2.119442596E0,9.548194427E0
7.956840000E-1,-1.998793488E0,1.950144653E0,8.584049377E0
8.057130000E-1,-2.318229218E0,2.035167847E0,8.777147827E0
8.157430000E-1,-2.267035675E0,2.144739990E0,9.801617432E0
8.257720000E-1,-1.910028076E0,2.048789520E0,1.065169968E1
8.358010000E-1,-1.813329163E0,1.936223602E0,1.029918274E1
8.458310000E-1,-1.792372742E0,1.550026703E0,9.606423340E0
8.558600000E-1,-1.356329498E0,8.396040344E-1,9.197324066E0
8.658890000E-1,-1.913770294E0,1.802701263E0,1.045815216E1
8.759190000E-1,-3.349434814E0,3.211870880E0,1.109507767E1
8.859480000E-1,-2.496209106E0,2.770738220E0,1.064122147E1
8.959770000E-1,-1.379830627E0,8.149053955E-1,9.503736877E0
9.060070000E-1,-1.934876404E0,3.715274048E-1,9.285041656E0
9.160360000E-1,-2.386936340E0,1.222807159E0,9.577982483E0
9.260660000E-1,-2.058369598E0,1.394500122E0,1.006462051E1
9.360950000E-1,-1.630559235E0,8.881031799E-1,1.010758118E1
9.461240000E-1,-1.052461395E0,5.034031677E-1,1.016700760E1
9.561540000E-1,-7.319778442E-1,-1.152603149E-2,1.037627243E1
9.661830000E-1,-5.574407959E-1,-2.781216431E-1,1.072624466E1
9.762120000E-1,-4.778063965E-1,5.402265930E-1,1.036848862E1
9.862420000E-1,-4.092489624E-1,7.455995178E-1,9.869576111E0
9.962710000E-1,-4.204756165E-1,9.231303406E-1,9.404493256E0
1.006300000E0,-7.253915405E-1,3.070115662E-1,9.047036591E0
1.016330000E0,-6.206094360E-1,-2.541714478E-1,8.716673584E0
1.026359000E0,-8.632548523E-1,7.946974182E-1,8.241711273E0
1.036388000E0,-1.103505249E0,8.731343079E-1,8.173153839E0
1.046418000E0,-2.778222656E-1,8.369096375E-1,9.334289246E0
1.056447000E0,-4.463717651E-1,3.251239014E-1,9.897118835E0
1.066476000E0,-8.396040344E-1,3.376977539E-1,9.585167542E0
1.076506000E0,2.395019531E-2,8.660989380E-1,1.034378998E1
1.086535000E0,1.660047913E-1,1.185384979E0,1.081126785E1
1.096565000E0,-2.589614868E-1,1.173858948E0,1.045455963E1
1.106594000E0,-3.406915283E-1,9.401948547E-1,9.973759460E0
1.116623000E0,4.364923096E-1,6.816824341E-1,9.929750977E0
1.126653000E0,1.077758789E0,1.201102295E0,1.004785538E1
1.136682000E0,5.779481506E-1,1.579216003E0,9.774673462E0
1.146711000E0,1.504371643E-1,1.559157715E0,9.696985016E0
1.156741000E0,-1.838177490E-1,1.881736908E0,9.698781281E0
1.166770000E0,-3.541635132E-1,1.976040802E0,9.701176300E0
1.176799000E0,-5.243595886E-1,2.066452789E0,9.725425873E0
1.186829000E0,-5.327421570E-1,2.246079254E0,9.630223846E0
1.196858000E0,-5.403762817E-1,2.412533112E0,8.710087280E0
1.206887000E0,-9.336085510E-1,2.643652496E0,8.214617615E0
1.216917000E0,-9.467811584E-1,2.875220947E0,7.733518066E0
1.226946000E0,-8.415499878E-1,2.919079742E0,7.340435486E0
1.236976000E0,-7.930508423E-1,2.950514374E0,7.197632446E0
1.247005000E0,-9.286688232E-1,2.880010986E0,7.184310150E0
1.257034000E0,-1.196162567E0,2.825673981E0,7.313491516E0
1.267064000E0,-1.578916626E0,2.848276978E0,7.489076385E0
1.277093000E0,-2.042951660E0,2.927462311E0,7.723638611E0
1.287122000E0,-2.368225250E0,2.943778381E0,8.030350800E0
1.297152000E0,-2.489323425E0,2.973416748E0,8.307424622E0
1.307181000E0,-2.443818054E0,3.077600098E0,8.581953735E0
1.317210000E0,-2.296075287E0,3.026256866E0,8.667575684E0
1.327240000E0,-2.023492126E0,3.035238190E0,8.752898254E0
1.337269000E0,-1.746717682E0,3.083887024E0,8.650361481E0
1.347298000E0,-1.650916901E0,3.025957489E0,8.346493378E0
1.357328000E0,-1.726659393E0,2.994971924E0,8.213569794E0
1.367357000E0,-1.850751343E0,3.090473328E0,8.387358398E0
1.377386000E0,-1.937720490E0,2.875819702E0,8.738378448E0
1.387416000E0,-2.133812714E0,2.702480164E0,9.176517334E0
1.397445000E0,-2.359842682E0,2.785557404E0,9.566306763E0
1.407475000E0,-2.204016724E0,2.699636078E0,9.824519806E0
1.417504000E0,-1.872007141E0,2.627486115E0,1.009725266E1
1.427533000E0,-1.756447449E0,2.625989227E0,1.027268784E1
1.437563000E0,-1.806293793E0,2.545756073E0,1.041399399E1
1.447592000E0,-1.935475159E0,2.427352295E0,1.037253021E1
1.457621000E0,-2.108215942E0,2.439776459E0,1.025607239E1
1.467651000E0,-2.132016449E0,2.335293732E0,1.027657974E1
1.477680000E0,-2.095642090E0,2.142794037E0,1.062999481E1
1.487709000E0,-2.034419403E0,2.209704895E0,1.120539825E1
1.497739000E0,-1.978286133E0,1.913770294E0,1.173574539E1
1.507768000E0,-2.111359406E0,1.750010834E0,1.209155548E1
1.517797000E0,-2.286644897E0,1.538650360E0,1.210951813E1
1.527827000E0,-2.456242218E0,1.343456268E0,1.182945053E1
1.537856000E0,-2.578088837E0,1.364412689E0,1.146914978E1
1.547885000E0,-2.468666382E0,1.427132263E0,1.099867813E1
1.557915000E0,-2.261048126E0,1.569486237E0,1.039737854E1
1.567944000E0,-2.077080688E0,1.894759827E0,9.787995758E0
1.577973000E0,-1.890269165E0,2.169738007E0,9.140442352E0
1.588003000E0,-1.888323212E0,2.261347504E0,8.627309418E0
1.598032000E0,-2.028731232E0,2.363435211E0,8.422684937E0
1.608062000E0,-1.895508270E0,2.079775085E0,8.738677826E0
1.618091000E0,-1.598376160E0,1.924248505E0,9.377848663E0
1.628120000E0,-1.463806000E0,1.848805389E0,9.782307587E0
1.638150000E0,-1.527872772E0,1.690285034E0,9.996063080E0
1.648179000E0,-1.642085266E0,1.633103943E0,9.924062805E0
1.658208000E0,-1.684896240E0,1.636546783E0,9.637109528E0
1.668238000E0,-1.575174408E0,1.698368225E0,9.435628510E0
1.678267000E0,-1.431024170E0,1.736987915E0,9.324709167E0
1.688296000E0,-1.457070007E0,1.768871613E0,9.242380371E0
1.698326000E0,-1.515897675E0,2.020648041E0,9.248966675E0
1.708355000E0,-1.632505188E0,2.153571625E0,9.313931580E0
1.718384000E0,-1.687141571E0,2.277513885E0,9.443711700E0
1.728409958E0,-1.598226471E0,2.201771393E0,9.431586914E0
1.738438958E0,-1.478026428E0,1.921853485E0,9.480684814E0
1.748467958E0,-1.447040863E0,2.065404968E0,9.628577271E0
1.758497958E0,-1.432521057E0,2.037413177E0,9.670789490E0
1.768526958E0,-1.400337982E0,1.930984497E0,9.703721008E0
1.778556958E0,-1.362466736E0,1.954186249E0,9.688303070E0
1.788585958E0,-1.305585022E0,1.844464417E0,9.549391937E0
1.798614958E0,-1.391206970E0,1.824855194E0,9.423952789E0
1.808644958E0,-1.386566620E0,1.929637299E0,9.447004852E0
1.818673958E0,-1.150956573E0,1.955084381E0,9.451345825E0
1.828702958E0,-9.599537659E-1,1.972897339E0,9.445358276E0
1.838732958E0,-8.659492493E-1,2.080074463E0,9.650431824E0
1.848761958E0,-8.707392883E-1,2.210453339E0,9.840985565E0
1.858790958E0,-8.698411560E-1,2.196981354E0,9.823771362E0
1.868820958E0,-8.469387817E-1,2.070793762E0,9.739496613E0
1.878849958E0,-9.888436890E-1,2.013013916E0,9.594148865E0
1.888878958E0,-1.130000153E0,2.040107574E0,9.434131622E0
1.898908958E0,-1.107995911E0,2.108215942E0,9.528585205E0
1.908937958E0,-9.794132996E-1,2.167342987E0,1.002465363E1
1.918966958E0,-9.696835327E-1,2.307451630E0,1.061831909E1
1.928996958E0,-1.220262451E0,2.510279846E0,1.121393051E1
1.939025958E0,-1.525178375E0,2.449805603E0,1.155671768E1
1.949054958E0,-1.680555267E0,2.437082062E0,1.145088776E1
1.959084958E0,-1.791474609E0,2.541564789E0,1.097412918E1
1.969113958E0,-1.832788696E0,2.722388763E0,1.031774414E1
1.979143958E0,-1.913620605E0,2.925815735E0,9.592502289E0
1.989172958E0,-2.144141235E0,3.075504456E0,9.079369354E0
1.999201958E0,-2.444117432E0,3.105142822E0,8.737929382E0
2.009231958E0,-2.698288879E0,2.914589081E0,8.526119843E0
2.019260958E0,-2.847528534E0,2.717598724E0,8.421936493E0
2.029289958E0,-2.825224915E0,2.639760590E0,8.299042053E0
2.039319958E0,-2.568508759E0,2.575693817E0,7.913294220E0
2.049348958E0,-2.181413727E0,2.529440002E0,7.481891327E0
2.059377958E0,-1.465602264E0,2.471360779E0,7.522456970E0
2.069407958E0,-8.149053955E-1,2.110910339E0,7.562723236E0
2.079436958E0,-8.571176147E-1,1.779050446E0,7.641758881E0
2.089465958E0,-1.445543976E0,1.859582977E0,7.873327332E0
2.099495958E0,-2.202819214E0,1.641486511E0,7.930807800E0
2.109524958E0,-2.840193787E0,1.036444702E0,7.847580872E0
2.119553958E0,-3.054398346E0,6.396199036E-1,7.694748688E0
2.129583958E0,-3.262315979E0,1.267564087E0,7.408843231E0
2.139612958E0,-3.338507538E0,1.401385803E0,7.253017273E0
2.149642958E0,-3.140319672E0,1.309925995E0,7.188501434E0
2.159671958E0,-2.655178528E0,1.310524750E0,7.206464081E0
2.169700958E0,-2.143243103E0,1.155596924E0,7.117998047E0
2.179730958E0,-1.745220795E0,1.013242950E0,7.289541321E0
2.189759958E0,-1.564546509E0,8.065228271E-1,7.839946747E0
2.199788958E0,-1.755998383E0,3.671864319E-1,8.501421204E0
2.209818958E0,-2.104024658E0,1.122665405E-1,9.180409241E0
2.219847958E0,-2.186952209E0,7.708969116E-2,9.674831085E0
2.229876958E0,-2.073937225E0,4.176315308E-2,9.904752960E0
2.239906958E0,-2.173330536E0,1.558259583E-1,9.882000275E0
2.249935958E0,-2.363135834E0,1.998344421E-1,9.642648010E0
2.259964958E0,-2.572999420E0,1.688488770E-1,9.296717377E0
2.269994958E0,-3.667822723E0,5.445675659E-1,1.268567001E1
2.280023958E0,-4.579277344E0,8.433462524E-1,1.361568604E1
2.290052958E0,-4.011508026E0,9.310638428E-1,1.029693741E1
2.300082958E0,-3.423530731E0,1.576671295E0,9.940528564E0
2.310111958E0,-1.211430817E0,1.153201904E0,9.237141266E0
2.320140958E0,3.228785706E-1,6.209088135E-1,1.073537567E1
2.330170958E0,3.161425781E-1,1.347198486E-2,1.089389603E1
2.340199958E0,-3.556604004E-1,-1.044827271E-1,1.051952454E1
2.350229958E0,-8.678952026E-1,8.158035278E-2,9.805060272E0
2.360258958E0,-8.255332947E-1,2.408491516E-1,9.234297180E0
2.370287958E0,-9.704319763E-1,1.496887207E-4,9.096882935E0
2.380317958E0,-1.590592346E0,-6.738986206E-1,9.534273376E0
2.390346958E0,-1.976938934E0,-9.666897583E-1,9.685608673E0
2.400375958E0,-2.210902405E0,-9.636959839E-1,9.332642670E0
2.410405958E0,-1.754800873E0,-8.081694031E-1,7.907306671E0
2.420434958E0,-8.551716614E-1,-3.490740967E-1,6.523584137E0
2.430463958E0,-6.128256226E-1,-5.789959717E-1,6.849606171E0
2.440493958E0,-2.677931213E-1,-1.096020813E0,9.540859680E0
2.450522958E0,-4.737648010E-1,-5.450166321E-1,1.079704742E1
2.460551958E0,-2.817141724E-1,3.125500488E-1,1.051353699E1
2.470581958E0,-4.909790039E-1,-2.559677124E-1,9.976004791E0
2.480610958E0,-9.068142700E-1,-1.132245483E0,9.671987000E0
2.490639958E0,-8.300239563E-1,-1.518592072E0,9.128167877E0
2.500669958E0,-7.015910339E-1,-1.469943237E0,8.573571167E0
2.510698958E0,-1.044527893E0,-7.851173401E-1,8.106692047E0
2.520728958E0,-1.538949738E0,3.471281433E-1,8.422984314E0
2.530757958E0,-2.349364471E0,1.483564911E0,9.738149414E0
2.540786958E0,-2.791994019E0,1.990560608E0,1.060903839E1
2.550816958E0,-3.038830719E0,1.691332855E0,1.013841705E1
2.560845958E0,-3.152294769E0,1.311871948E0,9.410630493E0
2.570874958E0,-3.474424896E0,1.471739502E0,8.673862610E0
2.580904958E0,-3.810775452E0,1.734443207E0,8.640032959E0
2.590933958E0,-4.284390564E0,1.897154846E0,9.202862549E0
2.600962958E0,-5.054988098E0,1.954335938E0,1.094568832E1
2.610992958E0,-5.790109406E0,1.834734650E0,1.213406708E1
2.621021958E0,-5.627098389E0,1.408720551E0,1.068777466E1
2.631050958E0,-5.395529938E0,6.153703308E-1,8.841813354E0
2.641080958E0,-5.499264221E0,1.227447510E-2,8.129444733E0
2.651109958E0,-5.469476166E0,1.026864624E0,8.225694580E0
2.661139958E0,-5.055137787E0,2.374811554E0,7.992180176E0
2.671168958E0,-4.987927551E0,2.902613983E0,8.304131470E0
2.681197958E0,-5.010530548E0,1.910776520E0,8.725205841E0
2.691227958E0,-4.667294312E0,1.101110229E0,8.729846191E0
2.701256958E0,-4.941673737E0,1.148860931E0,8.333470459E0
2.711285958E0,-5.373226318E0,7.836204529E-1,8.411308594E0
2.721315958E0,-5.168302460E0,6.179150391E-1,8.062384186E0
2.731345458E0,-5.328170013E0,9.274713135E-1,7.812254333E0
2.741374458E0,-5.979765015E0,9.428892517E-1,7.900870056E0
2.751404458E0,-6.143524475E0,5.580395508E-1,8.253836060E0
2.761433458E0,-5.598358154E0,1.519340515E-1,8.500672760E0
2.771462458E0,-5.347330170E0,2.237846375E-1,8.555907898E0
2.781492458E0,-5.303022308E0,9.714797974E-2,8.499475250E0
2.791521458E0,-5.008883972E0,-4.020639038E-1,8.214617615E0
2.801551458E0,-4.794380035E0,-9.397457886E-1,8.544830933E0
2.811580458E0,-5.049449615E0,-1.346000977E0,8.461604004E0
2.821609458E0,-4.966821442E0,-1.448986816E0,7.870932312E0
2.831639458E0,-4.583468628E0,-1.841470642E0,7.405400391E0
2.841668458E0,-4.456382904E0,-2.388882294E0,7.086563416E0
2.851697458E0,-4.476740570E0,-3.094215546E0,6.486611023E0
2.861727458E0,-3.853736115E0,-3.363804932E0,5.133125610E0
2.871756458E0,-2.396366730E0,-5.039570160E0,3.946842499E0
2.881785458E0,-1.546134796E0,-6.160439301E0,3.402125244E0
2.891815458E0,-1.620530090E0,-5.719905396E0,2.551444244E0
2.901844458E0,-2.965333557E0,-6.083499298E0,3.710783386E0
2.911873458E0,-3.658691711E0,-6.343658295E0,4.477489014E0
2.921903458E0,-3.659440155E0,-6.448440399E0,4.509372711E0
2.931932458E0,-3.478765869E0,-6.107150116E0,4.017944641E0
2.941962458E0,-3.626658325E0,-5.711223450E0,3.365002441E0
2.951991458E0,-4.267326050E0,-5.710774384E0,2.706072693E0
2.962020458E0,-5.409600677E0,-5.765111389E0,2.161056061E0
2.972050458E0,-7.125781860E0,-5.557493134E0,2.018702087E0
2.982079458E0,-9.081165619E0,-5.588329010E0,2.150727539E0
2.992108458E0,-1.075723022E1,-5.531746674E0,2.283351746E0
3.002138458E0,-1.167931274E1,-5.605393524E0,2.024689636E0
3.012167458E0,-1.180849411E1,-6.279591522E0,1.460363159E0
3.022196458E0,-1.145642624E1,-6.808591461E0,6.740483093E-1
3.032226458E0,-1.119207596E1,-6.854545898E0,-2.829116821E-2
3.042255458E0,-1.149998566E1,-6.556216278E0,-3.592529297E-1
3.052285458E0,-1.232132767E1,-6.198759613E0,-3.124003601E-1
3.062314458E0,-1.332124832E1,-5.991740112E0,9.520202637E-2
3.072343458E0,-1.443762680E1,-6.209387512E0,9.855505371E-1
3.082373458E0,-1.537812103E1,-6.269712067E0,1.604962463E0
3.092402458E0,-1.583497101E1,-6.149961090E0,1.700164490E0
3.102431458E0,-1.560968948E1,-6.279591522E0,1.676064606E0
3.112461458E0,-1.492695923E1,-6.472989349E0,1.381327515E0
3.122490458E0,-1.438882828E1,-6.514004059E0,1.231489105E0
3.132519458E0,-1.405681870E1,-6.627617798E0,1.333726501E0
3.142549458E0,-1.391671005E1,-6.558910675E0,1.432670746E0
3.152578458E0,-1.352198090E1,-6.556815033E0,1.524429932E0
3.162608458E0,-1.280197815E1,-6.865173798E0,1.653611298E0
3.172637458E0,-1.189411606E1,-7.589517517E0,1.753154297E0
3.182666458E0,-1.148786087E1,-8.212222595E0,1.312021637E0
3.192696458E0,-1.163455582E1,-8.050109711E0,1.096769257E0
3.202725458E0,-1.200174225E1,-7.821385345E0,1.344055023E0
3.212754458E0,-1.233390152E1,-7.826774139E0,1.954635315E0
3.222784458E0,-1.256951157E1,-7.998616791E0,2.629731445E0
3.232813458E0,-1.217747681E1,-8.217312012E0,3.065175934E0
3.242842458E0,-1.087997498E1,-8.369994507E0,2.856060791E0
3.252872458E0,-8.814120941E0,-8.661139069E0,1.964514771E0
3.262901458E0,-6.564898224E0,-8.935518494E0,7.023394775E-1
3.272931458E0,-5.266647949E0,-9.070986786E0,-3.655398560E-1
3.282960458E0,-5.193599854E0,-9.127419434E0,-9.078620911E-1
3.292989458E0,-6.545887756E0,-9.089099121E0,-1.269959106E0
3.303019458E0,-8.485853577E0,-9.060209198E0,-1.429826660E0
3.313048458E0,-9.232949982E0,-9.133406982E0,-1.415456543E0
3.323077458E0,-8.304430847E0,-9.760003967E0,-1.752405853E0
3.333107458E0,-6.521039429E0,-9.602681122E0,-2.073338470E0
3.343136458E0,-4.989424438E0,-9.139544220E0,-1.927092590E0
3.353165458E0,-3.827989655E0,-9.193432159E0,-1.575773163E0
3.363195458E0,-3.435356140E0,-8.900341644E0,-1.400637360E0
3.373224458E0,-3.920497284E0,-8.313262482E0,-1.575922852E0
3.383254458E0,-5.012177124E0,-7.641459503E0,-2.310595093E0
3.393283458E0,-6.024821320E0,-7.128176880E0,-3.407813416E0
3.403312458E0,-6.496041412E0,-7.619155884E0,-4.188440094E0
3.413342458E0,-6.185736694E0,-7.954608307E0,-4.661456451E0
3.423371458E0,-5.268444214E0,-7.801776123E0,-4.762795715E0
3.433400458E0,-4.155358887E0,-7.320377197E0,-4.256698151E0
