"Time (s)","X (rad/s)","Y (rad/s)","Z (rad/s)"
9.982541669E-3,-9.467368722E-1,-1.133346319E0,-1.979176402E-1
2.000954168E-2,-1.375836134E0,-8.382744193E-1,-7.726252824E-2
3.003754167E-2,-1.724635959E0,-6.349591017E-1,1.889383234E-2
4.006454168E-2,-1.952144265E0,-5.526741743E-1,7.206489146E-2
5.009254167E-2,-2.085131407E0,-5.199093223E-1,1.061189994E-1
6.011954168E-2,-2.173434973E0,-4.781880081E-1,1.281683594E-1
7.014754167E-2,-2.229584455E0,-4.112824798E-1,1.313124895E-1
8.017554166E-2,-2.245686054E0,-3.542982042E-1,9.501990676E-2
9.020254167E-2,-2.196972847E0,-2.684988976E-1,2.172891051E-2
1.002305417E-1,-2.064338446E0,-1.227526516E-1,-5.011651292E-2
1.102575417E-1,-1.848194718E0,-4.055739194E-2,-1.139234528E-1
1.202855417E-1,-1.553560376E0,-9.795784950E-2,-1.311460733E-1
1.303125417E-1,-1.191796422E0,-1.426363587E-1,-6.464800984E-2
1.403405417E-1,-8.142178655E-1,-1.563942730E-1,1.416944899E-2
1.503685417E-1,-4.874986112E-1,-2.118050605E-1,6.365045160E-2
1.603955417E-1,-2.552051842E-1,-3.448410332E-1,8.157780021E-2
1.704235417E-1,-1.051347107E-1,-4.433580041E-1,8.661489934E-2
1.804505417E-1,-1.702637412E-2,-4.225670695E-1,1.159717292E-1
1.904785417E-1,1.212284435E-3,-3.326044381E-1,1.611578465E-1
2.005055417E-1,-8.289220929E-2,-1.718261987E-1,1.429980248E-1
2.105335417E-1,-3.037430942E-1,-1.841534488E-2,5.937476829E-2
2.205615417E-1,-6.281422973E-1,7.444028556E-2,-2.779684588E-2
2.305885417E-1,-8.943145871E-1,1.860634834E-1,-7.527700812E-2
2.406165417E-1,-9.993804693E-1,3.474097848E-1,-1.066286489E-1
2.506435417E-1,-9.722753167E-1,3.581183553E-1,-1.148841828E-1
2.606715417E-1,-8.402754068E-1,2.116693407E-1,-8.264626563E-2
2.706985417E-1,-6.327052116E-1,-3.973945975E-2,-7.809314411E-3
2.807265417E-1,-3.929436207E-1,-3.526359499E-1,9.632424265E-2
2.907535417E-1,-1.770536751E-1,-6.318348646E-1,1.799014360E-1
3.007815417E-1,-1.829367690E-2,-8.821775913E-1,2.475814521E-1
3.108095417E-1,6.035665795E-2,-1.092931867E0,2.748322487E-1
3.208365417E-1,6.844930351E-2,-1.211559534E0,2.561192513E-1
3.308645417E-1,2.719986998E-2,-1.255958438E0,1.826892346E-1
3.408915417E-1,-5.746259913E-2,-1.281550765E0,7.302276790E-2
3.509195417E-1,-2.031356543E-1,-1.246858001E0,-8.069621772E-2
3.609465417E-1,-4.270556271E-1,-1.185704708E0,-2.554349005E-1
3.709745417E-1,-7.069722414E-1,-1.120815873E0,-4.053335786E-1
3.810025417E-1,-1.012112617E0,-1.075712681E0,-4.996729195E-1
3.910295417E-1,-1.316975117E0,-9.910207391E-1,-5.695212483E-1
4.010575417E-1,-1.487836957E0,-3.453423381E-1,-4.908402860E-1
4.110845417E-1,-1.637194395E0,8.463913947E-2,-3.286367357E-1
4.211125417E-1,-1.706953168E0,5.310413241E-1,-2.125366777E-1
4.311395417E-1,-1.710669398E0,5.578393936E-1,1.311716884E-1
4.411675417E-1,-1.818953395E0,9.883054346E-2,3.361057937E-1
4.511955417E-1,-1.936450481E0,-3.370825946E-1,3.268161714E-1
4.612225417E-1,-2.006450891E0,-5.448153019E-1,1.755554080E-1
4.712505417E-1,-2.009991169E0,-6.133339405E-1,-3.653154522E-2
4.812775417E-1,-1.935493350E0,-5.783425570E-1,-2.402077019E-1
4.913055417E-1,-1.746499419E0,-6.570901275E-1,-4.124162197E-1
5.013328750E-1,-1.417043686E0,-7.787004113E-1,-5.262747407E-1
5.113608750E-1,-1.042312145E0,-7.538938522E-1,-5.734869838E-1
5.213878750E-1,-6.711033583E-1,-5.587899089E-1,-5.843892694E-1
5.314158750E-1,-3.173697889E-1,-3.895606995E-1,-5.881235600E-1
5.414438750E-1,-2.512185089E-2,-3.487024307E-1,-6.089370251E-1
5.514708750E-1,1.921737194E-1,-4.095647335E-1,-6.496026516E-1
5.614988750E-1,3.437833488E-1,-4.775203466E-1,-6.926116943E-1
5.715258750E-1,4.258459806E-1,-4.990259111E-1,-7.066236734E-1
5.815538750E-1,4.614655972E-1,-4.158649743E-1,-6.680305004E-1
5.915808750E-1,4.815383554E-1,-2.155572027E-1,-5.661363602E-1
6.016088750E-1,4.801065624E-1,5.144258030E-3,-4.302307069E-1
6.116358750E-1,4.555889666E-1,1.083846241E-1,-3.332730234E-1
6.216638750E-1,4.093393981E-1,5.703890696E-2,-3.262322545E-1
6.316918750E-1,3.421678245E-1,-2.949944884E-2,-3.752607703E-1
6.417188750E-1,2.747037709E-1,-8.248429745E-2,-4.306904078E-1
6.517468750E-1,1.998298019E-1,-1.261460334E-1,-4.773990512E-1
6.617738750E-1,1.027849764E-1,-1.544506848E-1,-5.137910247E-1
6.718018750E-1,2.652669512E-2,-1.284105480E-1,-5.313178301E-1
6.818288750E-1,-1.266296720E-3,-2.032728493E-2,-5.229381919E-1
6.918568750E-1,1.763016172E-2,1.143370494E-1,-4.879237413E-1
7.018848750E-1,8.028988540E-2,2.184153646E-1,-4.363930225E-1
7.119118750E-1,1.484529674E-1,2.445521653E-1,-3.574872911E-1
7.219398750E-1,1.649878770E-1,1.810953170E-1,-2.742361128E-1
7.319668750E-1,1.191098690E-1,6.016597897E-2,-1.724476963E-1
7.419948750E-1,1.561889518E-2,-8.350250870E-2,-6.151984259E-2
7.520218750E-1,-1.352989823E-1,-2.459369600E-1,3.031287715E-2
7.620498750E-1,-3.241577744E-1,-3.477490246E-1,6.489117444E-2
7.720778750E-1,-5.222309232E-1,-2.952458858E-1,3.896104172E-2
7.821048750E-1,-6.947919130E-1,-1.336290985E-1,-1.339713857E-2
7.921328750E-1,-8.180544376E-1,6.216464937E-2,-8.033142984E-2
8.021598750E-1,-8.760933876E-1,2.508951128E-1,-1.454106122E-1
8.121878750E-1,-8.684498072E-1,3.450623751E-1,-1.885879189E-1
8.222148750E-1,-7.970621586E-1,3.117776513E-1,-2.026811242E-1
8.322428750E-1,-6.545047164E-1,2.361460030E-1,-1.858587414E-1
8.422698750E-1,-4.652228057E-1,1.007900983E-1,-1.623087674E-1
8.522978750E-1,-2.852493227E-1,-6.128854677E-2,-1.611553580E-1
8.623258750E-1,-1.486593336E-1,-1.740374416E-1,-1.730086356E-1
8.723528750E-1,-6.314842403E-2,-1.957999915E-1,-1.715079397E-1
8.823808750E-1,-4.098404944E-2,-1.569761485E-1,-1.527277380E-1
8.924078750E-1,-8.185637742E-2,-6.639485061E-2,-1.205982938E-1
9.024358750E-1,-1.661293805E-1,5.778822675E-2,-6.608533114E-2
9.124628750E-1,-2.512930334E-1,1.744706482E-1,1.670489460E-2
9.224908750E-1,-2.938660979E-1,2.398507893E-1,1.005360112E-1
9.325178750E-1,-2.632488012E-1,1.944723874E-1,1.653392464E-1
9.425458750E-1,-1.775393784E-1,1.679746434E-2,2.009586543E-1
9.525738750E-1,-8.867128938E-2,-2.057714313E-1,2.169932723E-1
9.626008750E-1,-3.586482257E-2,-3.686539829E-1,2.027461082E-1
9.726288750E-1,-4.894840345E-2,-4.465961754E-1,1.403604895E-1
9.826558750E-1,-1.098209620E-1,-4.417096972E-1,5.677912012E-2
9.926838750E-1,-1.918852031E-1,-3.694349825E-1,-2.195297554E-2
1.002710875E0,-2.784468532E-1,-2.463985384E-1,-6.421910226E-2
1.012738875E0,-3.718353510E-1,-8.060689270E-2,-4.148662463E-2
1.022766875E0,-4.612596929E-1,2.105081081E-2,3.508495539E-2
1.032793875E0,-5.269393325E-1,2.916786075E-2,1.499556005E-1
1.042821875E0,-5.400856733E-1,-2.583008446E-2,2.521404624E-1
1.052848875E0,-5.142737627E-1,-7.716970146E-2,3.228050470E-1
1.062876875E0,-4.582793117E-1,-1.317648292E-1,3.396285474E-1
1.072903875E0,-3.910832107E-1,-1.998118013E-1,3.105223179E-1
1.082931875E0,-3.472970724E-1,-2.148962468E-1,2.491274923E-1
1.092958875E0,-3.432565033E-1,-1.942466199E-1,1.721642613E-1
1.102986875E0,-3.425449729E-1,-1.530717015E-1,1.076870710E-1
1.113014875E0,-3.105579913E-1,-1.265625954E-1,5.662707984E-2
1.123041875E0,-2.299885452E-1,-1.279919147E-1,2.248230204E-2
1.133069875E0,-1.139210612E-1,-1.252829432E-1,1.511546690E-2
1.143096875E0,3.716356587E-3,-1.262539923E-1,4.599381238E-2
1.153124875E0,8.807278425E-2,-1.529646963E-1,1.012139171E-1
1.163151875E0,1.177945584E-1,-1.746683866E-1,1.476546228E-1
1.173179875E0,8.468534052E-2,-1.547548622E-1,1.632109433E-1
1.183206875E0,1.641610079E-2,-1.465829313E-1,1.336013377E-1
1.193234875E0,-6.859946251E-2,-1.376429647E-1,7.331616431E-2
1.203262875E0,-1.539863795E-1,-1.167672053E-1,-1.855507493E-3
1.213289875E0,-2.111833543E-1,-7.846162468E-2,-7.637634873E-2
1.223317875E0,-2.463552207E-1,-1.247066725E-2,-1.086678505E-1
1.233344875E0,-2.634210289E-1,7.380270213E-2,-1.122748330E-1
1.243372875E0,-2.795110643E-1,1.672967076E-1,-6.639622897E-2
1.253399875E0,-3.084678948E-1,2.132000178E-1,1.276782714E-2
1.263427875E0,-3.550450206E-1,2.029873431E-1,1.023430452E-1
1.273455875E0,-3.982569277E-1,1.640804261E-1,1.935571134E-1
1.283482875E0,-4.287190735E-1,1.183598489E-1,2.575433254E-1
1.293510875E0,-4.638956785E-1,7.083440572E-2,2.738530636E-1
1.303537875E0,-4.974325001E-1,6.889477372E-2,2.561599910E-1
1.313565875E0,-5.235370398E-1,1.265788376E-1,2.054153085E-1
1.323592875E0,-5.385649800E-1,2.196169049E-1,1.397348344E-1
1.333620875E0,-5.317757726E-1,2.942464054E-1,7.013498247E-2
1.343647875E0,-4.911781549E-1,3.012829423E-1,1.757679693E-2
1.353675875E0,-4.270178080E-1,2.405389100E-1,-1.565785706E-2
1.363703875E0,-3.600755036E-1,1.395617425E-1,-3.216871619E-2
1.373730875E0,-3.026710749E-1,2.146119624E-2,-4.525681585E-2
1.383758875E0,-2.659662962E-1,-4.842112958E-2,-6.073662639E-2
1.393785875E0,-2.758274674E-1,-7.658219337E-2,-7.655447721E-2
1.403813875E0,-3.426907063E-1,-8.034926653E-2,-8.664553612E-2
1.413840875E0,-4.518371522E-1,-2.569294162E-2,-9.055292606E-2
1.423868875E0,-5.596210361E-1,9.113954753E-2,-7.703419775E-2
1.433895875E0,-6.305940151E-1,2.169446200E-1,-6.820634753E-2
1.443923875E0,-6.546828151E-1,3.168936074E-1,-5.832726508E-2
1.453951875E0,-6.259734035E-1,4.195270538E-1,-5.719622225E-2
1.463978875E0,-3.217754066E-1,8.262991905E-1,-6.523089856E-2
1.474006875E0,4.009085000E-1,1.520928741E0,-8.376063406E-2
1.484033875E0,1.322083116E0,1.478574753E0,1.138919815E-1
1.494061875E0,1.822592258E0,5.157523751E-1,3.912104070E-1
1.504090125E0,1.616369724E0,7.624204755E-1,6.522923708E-1
1.514118125E0,1.035426140E0,8.277928233E-1,6.901004910E-1
1.524145125E0,5.407347679E-1,7.153688073E-1,5.499471426E-1
1.534173125E0,2.194933742E-1,7.612524033E-1,4.202804267E-1
1.544201125E0,2.165168151E-2,8.585145473E-1,3.446716070E-1
1.554228125E0,-1.630036533E-1,8.567987084E-1,2.364660203E-1
1.564256125E0,-3.310121000E-1,9.220024347E-1,2.173401602E-2
1.574283125E0,-4.489826858E-1,9.886347651E-1,-2.383606881E-1
1.584311125E0,-5.254589319E-1,1.021943212E0,-4.153272212E-1
1.594338125E0,-5.705814362E-1,9.777153134E-1,-4.649110138E-1
1.604366125E0,-5.816038251E-1,8.446331620E-1,-4.038400948E-1
1.614394125E0,-5.486362576E-1,6.575394869E-1,-3.207398951E-1
1.624421125E0,-5.507215261E-1,4.373382628E-1,-1.076927483E-1
1.634449125E0,-4.695438445E-1,2.336128354E-1,7.562008500E-2
1.644476125E0,-3.531308770E-1,8.312124014E-2,2.008800805E-1
1.654504125E0,-2.361874729E-1,5.242884904E-2,2.585694492E-1
1.664531125E0,-1.327865869E-1,8.477807790E-2,2.648684978E-1
1.674559125E0,-5.778184533E-2,1.293452680E-1,2.698882818E-1
1.684586125E0,-6.329163164E-2,2.006363571E-1,3.040825129E-1
1.694614125E0,-1.256828308E-1,2.219541669E-1,3.086019158E-1
1.704642125E0,-1.272852123E-1,2.336046398E-1,2.844879627E-1
1.714669125E0,-3.623360023E-2,2.528563738E-1,2.275810242E-1
1.724697125E0,1.142857224E-1,2.725507021E-1,2.229275703E-1
1.734724125E0,3.025155663E-1,3.854873776E-1,2.691832185E-1
1.744752125E0,4.923932254E-1,5.227030516E-1,4.274190366E-1
1.754779125E0,6.129292250E-1,4.074608684E-1,5.509809256E-1
1.764807125E0,5.700105429E-1,2.921779156E-1,5.765985847E-1
1.774834125E0,4.308944941E-1,2.060456872E-1,5.302081704E-1
1.784862125E0,2.796790600E-1,7.500936836E-2,5.138689280E-1
1.794890125E0,1.239174083E-1,-7.684966922E-2,5.403007865E-1
1.804917125E0,-1.810210058E-3,-2.850153744E-1,6.209701896E-1
1.814945125E0,-6.142640114E-2,-4.832759798E-1,7.315965295E-1
1.824972125E0,-7.995571941E-3,-4.518672526E-1,7.473808527E-1
1.835000125E0,1.963751316E-1,-2.345884442E-1,6.755868196E-1
1.845027125E0,4.505913258E-1,-3.898060322E-2,6.448042393E-1
1.855055125E0,6.327883005E-1,1.129993424E-1,7.242583036E-1
1.865082125E0,6.589822173E-1,9.404162318E-2,8.619009852E-1
1.875110125E0,5.923688412E-1,5.071007181E-3,1.074581027E0
1.885138125E0,5.154772401E-1,-5.839233845E-2,1.230580688E0
1.895165125E0,4.238778353E-1,-1.163304746E-1,1.236750484E0
1.905193125E0,3.038572669E-1,-1.762601137E-1,1.133598924E0
1.915220125E0,1.773848236E-1,-2.353127748E-1,1.066053987E0
1.925248125E0,6.325761229E-2,-2.794733942E-1,1.080488443E0
1.935275125E0,-7.545766234E-2,-3.857809305E-1,1.152127147E0
1.945303125E0,-1.822613925E-1,-5.196806192E-1,1.286300540E0
1.955330125E0,-2.293607146E-1,-5.858088136E-1,1.486764312E0
1.965358125E0,-1.971887350E-1,-5.218944550E-1,1.690546751E0
1.975386125E0,-9.915591031E-2,-4.080086648E-1,1.883416772E0
1.985413125E0,2.706097066E-2,-2.560210824E-1,2.147309542E0
1.995441125E0,1.323349327E-1,-1.387455910E-1,2.463734865E0
2.005468125E0,1.923214793E-1,-1.218336374E-1,2.825440168E0
2.015496125E0,2.072415650E-1,-6.199907511E-2,3.193990469E0
2.025523125E0,2.453791499E-1,-7.543766499E-2,3.482947588E0
2.035551125E0,2.516580820E-1,-1.230403408E-1,3.749727011E0
2.045578125E0,2.397010773E-1,-1.089266166E-1,4.061513424E0
2.055606125E0,2.372898459E-1,-2.644624114E-1,4.458536625E0
2.065634125E0,1.948247403E-1,-4.324080348E-1,4.924298763E0
2.075661125E0,1.775847673E-1,-3.828865588E-1,5.393138885E0
2.085689125E0,2.115699351E-1,-2.619527280E-1,5.755434990E0
2.095716125E0,2.633098364E-1,-2.213003933E-1,6.142796993E0
2.105744125E0,3.202667236E-1,-9.927434474E-2,6.654960155E0
2.115771125E0,3.535296023E-1,1.406366285E-2,7.158473969E0
2.125799125E0,3.648303151E-1,4.512070119E-2,7.490101814E0
2.135827125E0,3.923716545E-1,-1.147413440E-2,7.615299225E0
2.145854125E0,4.620012939E-1,-1.133887619E-1,7.603821278E0
2.155882125E0,6.144075990E-1,-1.168508753E-1,7.609819889E0
2.165909125E0,7.181932330E-1,3.055719659E-2,7.554957867E0
2.175937125E0,8.251399398E-1,-4.669498280E-2,7.473746300E0
2.185964125E0,8.769211173E-1,-8.352997899E-2,7.444413662E0
2.195992125E0,9.379732609E-1,-6.598533690E-2,7.448734283E0
2.206019125E0,1.025223374E0,-9.405182302E-2,7.438775063E0
2.216047125E0,1.158019066E0,-8.173390478E-2,7.412914753E0
2.226075125E0,1.351787329E0,1.353272647E-1,7.290597439E0
2.236102125E0,1.537189126E0,5.947278738E-1,7.125205040E0
2.246130125E0,1.662169695E0,1.244638205E0,6.981243134E0
2.256157125E0,1.727660775E0,1.721106291E0,6.779496670E0
2.266185125E0,1.755211592E0,1.924545646E0,6.561075211E0
2.276212125E0,1.766933799E0,1.912777901E0,6.458960056E0
2.286240125E0,1.746587515E0,1.756291389E0,6.454863071E0
2.296267125E0,1.746108055E0,1.685111165E0,6.456782341E0
2.306295125E0,1.739156485E0,1.713315129E0,6.446479797E0
2.316323125E0,1.648949146E0,1.536078572E0,6.375832558E0
2.326350125E0,1.492901683E0,1.268711686E0,6.231800079E0
2.336378125E0,1.306163669E0,1.175670624E0,6.046377182E0
2.346405125E0,1.168135405E0,1.208393455E0,5.755061150E0
2.356433125E0,1.049459815E0,1.257311463E0,5.345623493E0
2.366460125E0,8.630110025E-1,1.376243591E0,4.938095093E0
2.376488125E0,6.409126520E-1,1.499652386E0,4.581463814E0
2.386515125E0,3.957993686E-1,1.530324221E0,4.311975002E0
2.396543125E0,1.683347821E-1,1.394338369E0,4.136152267E0
2.406571125E0,5.272357911E-2,1.151464105E0,3.921759367E0
2.416598125E0,-1.062662993E-2,8.718788624E-1,3.703227758E0
2.426626125E0,7.290657610E-3,6.379600763E-1,3.455164194E0
2.436653125E0,1.322280616E-1,4.040423930E-1,3.045312881E0
2.446681125E0,2.612427473E-1,2.314724326E-1,2.579067469E0
2.456708125E0,4.025021195E-1,2.405567467E-1,2.201329470E0
2.466736125E0,5.397011638E-1,3.759004474E-1,1.809656620E0
2.476763125E0,6.003668904E-1,4.879052639E-1,1.593325377E0
2.486791125E0,5.391886830E-1,3.953040540E-1,1.551866651E0
2.496819125E0,5.024376512E-1,1.947728097E-1,1.505061507E0
2.506846167E0,5.361509919E-1,5.105980858E-2,1.439003110E0
2.516874167E0,6.365841031E-1,-4.327175394E-2,1.309422731E0
2.526901167E0,7.485241890E-1,-2.600572705E-1,1.048714161E0
2.536929167E0,8.613727093E-1,-2.813771963E-1,8.194366097E-1
2.546956167E0,9.275736809E-1,-1.887656003E-1,6.981564164E-1
2.556984167E0,8.398302794E-1,-5.787630007E-2,7.160917521E-1
2.567012167E0,5.895649791E-1,3.908416629E-2,9.178169966E-1
2.577039167E0,2.042982876E-1,-1.742331684E-2,1.168074250E0
2.587067167E0,-1.652524322E-1,-9.726575017E-2,1.377133846E0
2.597094167E0,-4.145210981E-1,-1.384486109E-1,1.520757318E0
2.607122167E0,-4.746370912E-1,-2.029135972E-1,1.523914576E0
2.617149167E0,-4.599944949E-1,-1.664104462E-1,1.433536768E0
2.627177167E0,-4.880216122E-1,-2.758549154E-1,1.267668366E0
2.637204167E0,-4.290179312E-1,-3.437833488E-1,1.093608975E0
2.647232167E0,-2.675832510E-1,-1.186781153E-1,1.008016706E0
2.657260167E0,-1.463359445E-1,-5.688105524E-2,1.002985001E0
2.667287167E0,-4.014041275E-2,-6.704420596E-2,1.062515259E0
2.677315167E0,3.883483261E-2,-1.015590355E-1,1.172049999E0
2.687342167E0,9.896835685E-2,-1.064514369E-1,1.269163728E0
2.697370167E0,2.645618320E-1,-7.108892500E-2,1.243984103E0
2.707397167E0,5.713683963E-1,4.564641416E-2,1.115902305E0
2.717425167E0,5.570161343E-1,-8.276215941E-2,1.120553970E0
2.727452167E0,4.114216566E-1,-3.799570352E-2,1.235771537E0
2.737480167E0,2.194684595E-1,7.344746590E-2,1.423227429E0
2.747508167E0,-1.070519462E-1,1.388511211E-1,1.480755329E0
2.757535167E0,-3.988305330E-1,1.749960780E-1,1.436833620E0
2.767563167E0,-5.002196431E-1,1.822122782E-1,1.299986720E0
2.777590167E0,-4.895773828E-1,1.973622143E-1,1.153746724E0
2.787618167E0,-4.859431982E-1,1.588885337E-1,1.021346569E0
2.797645167E0,-4.688976407E-1,8.125125617E-2,9.574893117E-1
2.807673167E0,-3.838770986E-1,-1.051613595E-3,9.828580618E-1
2.817700167E0,-2.404424697E-1,-8.028518409E-2,1.033595920E0
2.827728167E0,-9.614179283E-2,-4.706058279E-2,1.056686640E0
2.837756167E0,2.600301988E-2,8.060630411E-2,1.131210566E0
2.847783167E0,1.942600608E-1,3.785745502E-1,1.257088304E0
2.857811167E0,4.682308733E-1,9.596635103E-1,1.407301426E0
2.867838167E0,6.772035360E-1,1.599624157E0,1.569136620E0
2.877866167E0,7.553195953E-1,2.246365070E0,1.701686859E0
2.887893167E0,5.241085887E-1,2.817010880E0,1.691079617E0
2.897921167E0,6.055741385E-2,3.439579725E0,1.549271584E0
2.907949167E0,-2.776732445E-1,3.755187035E0,1.440523982E0
2.917976167E0,-3.471490145E-1,3.947361231E0,1.379463315E0
2.928004167E0,-3.696789145E-1,4.550540447E0,1.269690871E0
2.938031167E0,-5.157314539E-1,5.032886028E0,1.151939154E0
2.948059167E0,-7.642713189E-1,4.985014915E0,1.150988102E0
2.958086167E0,-4.861014783E-1,3.677434206E0,1.038241863E0
2.968114167E0,8.451571465E-1,-4.078167379E-1,1.519449711E0
2.978141167E0,5.766527057E-1,4.924616814E-1,1.920964122E0
2.988169167E0,2.871559262E-1,1.275098801E0,1.748522401E0
2.998197167E0,-1.180701479E-1,1.988564730E0,1.678756714E0
3.008224167E0,-3.821929693E-1,1.990944862E0,1.913775802E0
3.018252167E0,-5.887962580E-1,1.563504577E0,2.227378607E0
3.028279167E0,-6.389935613E-1,7.280265689E-1,2.202486515E0
3.038307167E0,-5.166463256E-1,1.458608955E-1,2.026661158E0
3.048334167E0,-3.013181984E-1,2.417283207E-1,1.932538629E0
3.058362167E0,8.567213267E-2,3.985576034E-1,1.770943642E0
3.068389167E0,4.926157594E-1,6.552516818E-1,1.683183551E0
3.078417167E0,7.839778066E-1,9.592682719E-1,1.620566130E0
3.088445167E0,9.091587067E-1,1.127699971E0,1.492293119E0
3.098472167E0,8.184799552E-1,6.882371306E-1,1.477469683E0
3.108500167E0,4.120122492E-1,-3.084850013E-1,1.315351844E0
3.118527167E0,1.436130255E-1,-1.528849363E0,1.132867813E0
3.128555167E0,1.687718332E-1,-2.109427452E0,9.890114069E-1
3.138582167E0,4.678376317E-1,-2.053499222E0,1.013741612E0
3.148610167E0,7.123186588E-1,-1.206030488E0,1.080058336E0
3.158637167E0,7.804508209E-1,-7.040613890E-1,9.710935950E-1
3.168665167E0,7.110735774E-1,-4.005949795E-1,1.013706446E0
3.178693167E0,4.672633111E-1,-2.139196396E-1,1.036780596E0
3.188720167E0,1.842573285E-1,-7.482805848E-2,1.007953048E0
3.198748167E0,-1.181524619E-2,5.300153419E-2,9.163445234E-1
3.208775167E0,1.211815923E-1,8.012824059E-1,7.796021700E-1
3.218803167E0,3.611595631E-1,1.014953375E0,4.220216572E-1
3.228830167E0,3.511529863E-1,1.211999893E0,-4.037232604E-3
3.238858167E0,2.984051108E-1,1.096575260E0,-2.834483683E-1
3.248886167E0,1.811586171E-1,8.352226019E-1,-3.186260462E-1
3.258913167E0,1.053453386E-1,5.557720065E-1,-1.991595924E-1
3.268941167E0,1.436254233E-1,1.971708834E-1,-3.238958120E-2
3.278968167E0,1.851893663E-1,-3.532038331E-1,1.402042955E-1
3.288996167E0,1.903826296E-1,-7.844946980E-1,2.899215817E-1
3.299023167E0,2.720079720E-1,-8.510811925E-1,3.560337722E-1
3.309051167E0,3.777292073E-1,-5.840356946E-1,3.218949139E-1
3.319078167E0,4.300366044E-1,-1.908774823E-1,2.050721645E-1
3.329106167E0,3.912958503E-1,8.306436241E-2,3.710094467E-2
