"Time (s)","X (rad/s)","Y (rad/s)","Z (rad/s)"
1.702383335E-2,-1.131960675E-1,8.334255964E-2,1.877870262E-1
2.706683334E-2,-4.649538398E-1,2.063512951E-1,2.149619311E-1
3.710983339E-2,-7.083222866E-1,2.192149013E-1,1.713436246E-1
4.715383338E-2,-8.139284253E-1,2.945736945E-1,1.394658536E-1
5.719683337E-2,-8.241147399E-1,3.311761916E-1,1.213446334E-1
6.724083336E-2,-7.647264004E-1,3.665357828E-1,5.851054937E-2
7.728383335E-2,-6.364177465E-1,4.230049253E-1,-7.045115530E-2
8.732783335E-2,-4.291375875E-1,4.183547795E-1,-1.624836624E-1
9.737083333E-2,-1.576965153E-1,3.743524253E-1,-1.839607209E-1
1.074138334E-1,1.037538797E-1,2.995363474E-1,-1.798809916E-1
1.174578334E-1,2.629331350E-1,1.977450252E-1,-1.341273487E-1
1.275008334E-1,2.880908847E-1,1.434915215E-1,-2.739720605E-2
1.375448334E-1,2.335283160E-1,6.163287535E-2,8.741645515E-2
1.475878333E-1,1.550123692E-1,-8.213037625E-3,1.704814583E-1
1.576318333E-1,5.963924527E-2,-1.117021218E-2,2.161581367E-1
1.676748334E-1,-3.516189009E-2,1.859804615E-2,1.773751378E-1
1.777178334E-1,-8.764080703E-2,1.415841430E-1,7.354515046E-2
1.877618334E-1,-9.303071350E-2,2.748315632E-1,-3.459815308E-2
1.978048334E-1,-6.542598456E-2,4.244543612E-1,-7.461054623E-2
2.078488333E-1,-3.140272200E-2,5.668770075E-1,-1.019140556E-1
2.178918333E-1,2.767950669E-2,6.488738656E-1,-1.614535451E-1
2.279358333E-1,6.323949248E-2,7.225363851E-1,-2.059589624E-1
2.379788334E-1,4.534225166E-2,8.052025437E-1,-2.234223634E-1
2.480218334E-1,4.615594633E-3,8.266156912E-1,-2.580485046E-1
2.580658334E-1,-2.654072642E-2,9.413297176E-1,-3.038713932E-1
2.681088333E-1,-6.035028026E-2,1.159723520E0,-3.932012916E-1
2.781528333E-1,-1.036322340E-1,1.338040829E0,-6.084401011E-1
2.881958334E-1,-1.924232244E-1,1.534182072E0,-8.878607750E-1
2.982388334E-1,-3.012613058E-1,1.839988351E0,-1.179847956E0
3.082828334E-1,-3.885309696E-1,2.257552147E0,-1.446048141E0
3.183258334E-1,-6.730351448E-1,2.453781128E0,-1.667800784E0
3.283698334E-1,-9.159331918E-1,3.009861946E0,-1.860811830E0
3.384128333E-1,-1.026853919E0,3.393178225E0,-2.077159882E0
3.484568333E-1,-9.934495091E-1,3.752272129E0,-2.242188215E0
3.584998334E-1,-8.537610769E-1,4.016129017E0,-2.416398287E0
3.685428334E-1,-6.816943288E-1,4.228687286E0,-2.696670771E0
3.785868334E-1,-5.493938327E-1,4.525034428E0,-3.094508410E0
3.886298334E-1,-5.252366662E-1,4.740998745E0,-3.539784670E0
3.986738333E-1,-6.430911422E-1,4.908995152E0,-3.947681904E0
4.087168333E-1,-8.670651317E-1,5.029221535E0,-4.302718639E0
4.187608334E-1,-1.137215853E0,5.134579659E0,-4.593089581E0
4.288038334E-1,-1.361946702E0,5.218864918E0,-4.769264221E0
4.388468334E-1,-1.472774148E0,5.260593414E0,-4.784439564E0
4.488908334E-1,-1.482399940E0,5.227355003E0,-4.677039146E0
4.589338333E-1,-1.382743955E0,4.988730431E0,-4.575457573E0
4.689778333E-1,-1.252185106E0,4.674518585E0,-4.456086159E0
4.790208334E-1,-1.178622961E0,4.255744457E0,-4.238050461E0
4.890638334E-1,-1.148044944E0,3.661159515E0,-3.912565947E0
4.991078334E-1,-1.147771239E0,2.905535221E0,-3.508740187E0
5.091508334E-1,-1.125237107E0,2.167952299E0,-3.158940077E0
5.191948334E-1,-9.933741689E-1,1.641172409E0,-2.858872414E0
5.292378333E-1,-7.254208922E-1,1.409149766E0,-2.658630371E0
5.392818333E-1,-4.542578161E-1,1.388923287E0,-2.573881149E0
5.493248334E-1,-2.758602202E-1,1.522629499E0,-2.565625668E0
5.593678334E-1,-2.416295409E-1,1.789510727E0,-2.630562305E0
5.694118334E-1,-3.559903502E-1,1.962412119E0,-2.713721275E0
5.794548334E-1,-5.369234085E-1,1.985321879E0,-2.735403299E0
5.894988333E-1,-6.547964215E-1,1.743610978E0,-2.658835649E0
5.995418333E-1,-6.510410905E-1,1.159935832E0,-2.479682684E0
6.095848334E-1,-5.529393554E-1,4.022949934E-1,-2.134050369E0
6.196288334E-1,-3.496325612E-1,-1.772584021E-1,-1.677867532E0
6.296718334E-1,-1.383703649E-1,-5.318182111E-1,-1.327593446E0
6.397158334E-1,-3.853698075E-2,-5.832741857E-1,-1.118002415E0
6.497588333E-1,-8.468979597E-2,-3.271344304E-1,-1.020994663E0
6.598028333E-1,-2.232452631E-1,-1.997078583E-2,-1.083611965E0
6.698458334E-1,-3.840646148E-1,1.271699518E-1,-1.282085299E0
6.798888334E-1,-5.010274649E-1,2.719175518E-1,-1.432781935E0
6.899328334E-1,-5.405132771E-1,1.607764959E-1,-1.474923253E0
6.999758334E-1,-5.164403915E-1,-2.077008635E-1,-1.374180675E0
7.100198334E-1,-4.595079422E-1,-5.309678316E-1,-1.067025185E0
7.200628333E-1,-3.353468478E-1,-7.781376839E-1,-6.951536536E-1
7.301068333E-1,-2.065974176E-1,-9.198490381E-1,-4.421291351E-1
7.401498334E-1,-1.808212101E-1,-7.728601098E-1,-2.827136517E-1
7.501928334E-1,-2.371943444E-1,-5.362367034E-1,-3.242871761E-1
7.602368334E-1,-3.197038770E-1,-4.211135507E-1,-4.269624352E-1
7.702798333E-1,-4.141765535E-1,-5.619797111E-1,-4.210864604E-1
7.803238333E-1,-4.780074358E-1,-7.843163610E-1,-4.239634573E-1
7.903668334E-1,-4.909258187E-1,-9.529355168E-1,-4.435643256E-1
8.004108334E-1,-4.791812897E-1,-1.091812968E0,-4.605395794E-1
8.104538334E-1,-4.585126936E-1,-1.261943817E0,-4.150050879E-1
8.204968334E-1,-4.491634071E-1,-1.310891986E0,-3.003155291E-1
8.305408334E-1,-4.420402646E-1,-1.145490408E0,-2.407870293E-1
8.405838333E-1,-4.010280967E-1,-8.031607866E-1,-3.141384721E-1
8.506278333E-1,-2.752169371E-1,-4.423013926E-1,-5.961844921E-1
8.606708334E-1,4.337008297E-2,-2.671556771E-1,-9.006364942E-1
8.707138334E-1,3.737961650E-1,-5.078213811E-1,-1.022098541E0
8.807578334E-1,7.646265030E-1,-4.913279414E-1,-9.024666548E-1
8.908008334E-1,1.131485701E0,-6.480416656E-1,-7.932613492E-1
9.008448333E-1,1.274189115E0,-7.558834553E-1,-6.420475841E-1
9.108869584E-1,1.256285906E0,-7.493062019E-1,-5.422394872E-1
9.209309584E-1,1.160542846E0,-5.276529193E-1,-5.632883310E-1
9.309739583E-1,9.455047250E-1,-2.342162430E-1,-6.390057206E-1
9.410169584E-1,6.870198846E-1,-3.805125877E-2,-7.158378959E-1
9.510609584E-1,4.532334507E-1,-3.824126348E-2,-7.625793219E-1
9.611039584E-1,3.533616960E-1,-1.654540747E-1,-7.376545072E-1
9.711479584E-1,4.285542667E-1,-4.051055610E-1,-7.038661838E-1
9.811909584E-1,5.260973573E-1,-6.530634165E-1,-7.479508519E-1
9.912339583E-1,5.752349496E-1,-7.153025270E-1,-8.028372526E-1
1.001277958E0,5.406804085E-1,-8.052161932E-1,-6.763408184E-1
1.011320958E0,4.409150183E-1,-6.022701263E-1,-7.376497388E-1
1.021364958E0,3.434894085E-1,-2.449437082E-1,-9.065703154E-1
1.031407958E0,2.737689912E-1,2.560829557E-2,-1.009360313E0
1.041451958E0,3.039918840E-1,7.645469904E-2,-1.014328957E0
1.051494958E0,2.795681655E-1,-1.012410037E-3,-8.897380829E-1
1.061537958E0,1.895660907E-1,-2.478695959E-1,-7.926458716E-1
1.071581958E0,1.848656833E-1,-1.898781955E-1,-9.010810256E-1
1.081624958E0,1.319827735E-1,-1.256619245E-1,-9.346261621E-1
1.091668958E0,2.699926794E-1,1.804556549E-1,-1.463784814E0
1.101711958E0,1.605612934E-1,6.355166435E-1,-1.254364967E0
1.111755958E0,9.223992005E-3,3.236576915E-1,-1.161054015E0
1.121798958E0,-1.025028005E-1,5.113903284E-1,-1.175592422E0
1.131841958E0,-2.859321535E-1,8.260827065E-1,-1.252041936E0
1.141885958E0,-3.594537675E-1,8.799038529E-1,-1.271630883E0
1.151928958E0,-2.956571877E-1,6.354181170E-1,-1.162075877E0
1.161972958E0,-1.581880264E-3,4.331878126E-1,-8.488175273E-1
1.172015958E0,2.014822513E-1,4.110044241E-2,-7.248000503E-1
1.182058958E0,2.146395892E-1,-2.344898880E-2,-5.665920377E-1
1.192102958E0,7.998821884E-2,-3.577117249E-2,-4.466914237E-1
1.202145958E0,-1.090845019E-1,-2.428309619E-2,-3.435730338E-1
1.212189958E0,-2.195137292E-1,3.624027967E-2,-2.942067385E-1
1.222232958E0,-2.945480347E-1,9.999689460E-2,-3.103383183E-1
1.232276958E0,-3.720853627E-1,1.683827490E-1,-3.878142238E-1
1.242319958E0,-4.111781716E-1,2.982883155E-1,-5.071667433E-1
1.252362958E0,-3.651992381E-1,4.170879126E-1,-5.731782913E-1
1.262406958E0,-3.326974809E-1,4.287986457E-1,-5.990005732E-1
1.272449958E0,-4.177286625E-1,3.238771260E-1,-6.706155539E-1
1.282493958E0,-4.711636603E-1,2.266520411E-1,-7.893965244E-1
1.292536958E0,-4.425307810E-1,1.013139784E-1,-7.901524305E-1
1.302579958E0,-4.721949100E-1,8.821788430E-2,-7.347850204E-1
1.312623958E0,-6.252909303E-1,3.001581505E-2,-7.206947207E-1
1.322666958E0,-8.614685535E-1,3.556690738E-2,-7.727379203E-1
1.332710958E0,-1.076894522E0,1.611159295E-1,-8.373228312E-1
1.342753958E0,-1.211208701E0,3.165090084E-1,-8.703221083E-1
1.352797958E0,-1.290268302E0,3.226210475E-1,-8.991240859E-1
1.362840958E0,-1.341533065E0,2.067139000E-1,-9.360523224E-1
1.372883958E0,-1.317919016E0,5.575700477E-2,-9.672730565E-1
1.382927958E0,-1.127520561E0,5.947424844E-2,-9.602434039E-1
1.392970958E0,-9.136809111E-1,1.205843464E-1,-9.444399476E-1
1.403014958E0,-8.082352281E-1,2.343870699E-1,-9.749216437E-1
1.413057958E0,-8.306375146E-1,2.740380764E-1,-1.090793729E0
1.423101958E0,-9.440622926E-1,3.391438425E-1,-1.219598532E0
1.433144958E0,-1.069226623E0,3.853627443E-1,-1.225605607E0
1.443187958E0,-1.169862628E0,3.564477265E-1,-1.214583755E0
1.453231958E0,-1.257059097E0,3.519420624E-1,-1.167917728E0
1.463274958E0,-1.367600203E0,2.227486521E-1,-1.110365748E0
1.473318958E0,-1.467868805E0,3.998990357E-2,-1.029886127E0
1.483361958E0,-1.482623219E0,-8.750759810E-2,-9.675372839E-1
1.493404958E0,-1.480730653E0,-9.325976670E-2,-9.437370896E-1
1.503448958E0,-1.530136347E0,-5.218982697E-2,-9.386632442E-1
1.513491958E0,-1.659773231E0,-4.206555337E-2,-9.753728509E-1
1.523535958E0,-1.749721766E0,-3.825723007E-2,-1.070831418E0
1.533578958E0,-1.800151110E0,-2.621599473E-3,-1.141271353E0
1.543622958E0,-1.852026582E0,-4.828202724E-2,-1.141698003E0
1.553665958E0,-2.001879692E0,-1.038672775E-1,-1.185254455E0
1.563708958E0,-2.282280445E0,-4.420847073E-2,-1.195713162E0
1.573752958E0,-2.552478552E0,9.377150983E-2,-1.184232593E0
1.583795958E0,-2.688954353E0,1.751947254E-1,-1.169494033E0
1.593839958E0,-2.661307573E0,1.309846640E-1,-1.161797047E0
1.603882958E0,-2.550093651E0,6.211318448E-2,-1.142474174E0
1.613925958E0,-2.516935825E0,1.688354909E-1,-1.048413992E0
1.623969958E0,-2.504623413E0,2.052052170E-1,-9.344496131E-1
1.634012958E0,-2.249877691E0,1.819538325E-1,-8.570947051E-1
1.644056958E0,-1.659401894E0,1.683586538E-1,-8.935555220E-1
1.654099958E0,-1.268525720E0,1.963737905E-1,-9.943547249E-1
1.664143958E0,-1.061324120E0,2.531481087E-1,-1.016840100E0
1.674186958E0,-8.249470592E-1,2.321356386E-1,-9.047037363E-1
1.684229958E0,-6.161043644E-1,2.589973509E-1,-7.225283384E-1
1.694273958E0,-4.840883315E-1,1.836013943E-1,-5.048383474E-1
1.704316958E0,-4.333939850E-1,9.347576648E-2,-3.705548346E-1
1.714360958E0,-4.420296550E-1,2.787099183E-1,-3.353430629E-1
1.724403958E0,-4.172044694E-1,3.703487813E-1,-2.706444860E-1
1.734447958E0,-3.859595954E-1,3.595330119E-1,-1.850656122E-1
1.744490958E0,-3.983406126E-1,2.888649404E-1,-3.789987415E-2
1.754533958E0,-3.775871694E-1,1.362609118E-1,1.915279329E-1
1.764577958E0,-2.390266210E-1,3.722194582E-2,3.948735893E-1
1.774620958E0,-8.968448639E-2,1.530935615E-1,3.596575260E-1
1.784664958E0,-9.582989849E-3,3.940017819E-1,2.593897879E-1
1.794707958E0,4.332096316E-3,3.635060191E-1,1.454433054E-1
1.804750958E0,-5.886338279E-2,2.319474816E-1,8.777858689E-3
1.814794958E0,-1.381795108E-1,4.273921251E-2,-1.912348717E-1
1.824837958E0,-1.166044325E-1,-1.732378155E-1,-4.382688999E-1
1.834881958E0,-1.391498931E-2,-2.809132934E-1,-5.476340055E-1
1.844924958E0,3.753302246E-2,-4.326351881E-1,-4.788194895E-1
1.854968958E0,-3.890397027E-2,-6.416982412E-1,-3.786178231E-1
1.865011958E0,-3.299840912E-2,-6.621962786E-1,-3.488287628E-1
1.875054958E0,1.787120104E-1,-7.929264903E-1,-2.951964438E-1
1.885098958E0,3.769981861E-1,-8.007077575E-1,-2.450112998E-1
1.895141958E0,4.407180548E-1,-7.234894633E-1,-2.342340052E-1
1.905185958E0,3.640656471E-1,-7.397366166E-1,-2.401651293E-1
1.915229000E0,2.686662078E-1,-7.664155364E-1,-2.666638792E-1
1.925272000E0,2.476703972E-1,-8.610400558E-1,-3.053316474E-1
1.935316000E0,2.709024847E-1,-9.824345112E-1,-3.379510939E-1
1.945359000E0,2.111752331E-1,-6.999916434E-1,-3.155408502E-1
1.955403000E0,1.278481483E-1,-2.732199430E-1,-3.381742537E-1
1.965446000E0,1.412837952E-1,-1.516716629E-1,-4.278181195E-1
1.975490000E0,1.060190871E-1,-1.236517578E-1,-4.209993780E-1
1.985533000E0,4.546226561E-2,-8.398956805E-2,-3.541345894E-1
1.995576000E0,9.559281170E-2,-5.350197107E-2,-3.142170012E-1
2.005620000E0,2.033709288E-1,-1.012327373E-1,-2.969163060E-1
2.015663000E0,3.630819321E-1,-1.185306311E-1,-2.762709856E-1
2.025707000E0,4.750087559E-1,-1.761947274E-1,-2.913652062E-1
2.035750000E0,4.786443710E-1,-2.255707830E-1,-2.865526378E-1
2.045793000E0,6.073392630E-1,-4.957050681E-1,-2.124472558E-1
2.055837000E0,6.373310685E-1,-5.667279959E-1,-2.327805161E-1
2.065880000E0,5.900165439E-1,-4.925264418E-1,-1.111736447E-1
2.075924000E0,4.645453393E-1,-5.097414255E-1,-3.657445312E-2
2.085967000E0,3.537389338E-1,-6.061894298E-1,2.169630863E-2
2.096011000E0,3.658425510E-1,-7.534198761E-1,1.208183318E-1
2.106054000E0,2.883882523E-1,-8.777955770E-1,2.139751762E-1
2.116097000E0,2.053906024E-1,-9.041423202E-1,2.761932611E-1
2.126141000E0,1.802519560E-1,-9.483880997E-1,3.317263126E-1
2.136184000E0,1.415898949E-1,-8.580033779E-1,2.921155393E-1
2.146228000E0,6.294354796E-2,-6.649777293E-1,2.113493234E-1
2.156271000E0,2.317939326E-2,-4.984338880E-1,1.919082552E-1
2.166314000E0,-1.033801585E-3,-2.890132666E-1,1.644084454E-1
2.176358000E0,-2.031176910E-2,-1.798104942E-1,1.429705024E-1
2.186401000E0,-1.259153150E-2,-2.525312901E-1,1.144357994E-1
2.196445000E0,-6.611271296E-3,-3.342132270E-1,2.061979473E-2
2.206488000E0,2.089092508E-2,-1.927221566E-1,-1.342856288E-1
2.216532000E0,7.364863157E-2,7.737402618E-2,-4.472866356E-1
2.226575000E0,8.576734364E-2,4.936950505E-1,-7.282825708E-1
2.236618000E0,6.472282857E-2,7.777287960E-1,-9.616463780E-1
2.246662000E0,2.549872175E-2,9.480280876E-1,-1.037464619E0
2.256705000E0,-5.878900737E-2,7.894275188E-1,-7.432519794E-1
2.266749000E0,-9.529268742E-2,6.992893815E-1,-6.819363832E-1
2.276792000E0,-9.252757579E-2,6.740199924E-1,-7.412669063E-1
2.286835000E0,-1.470526159E-1,6.058701873E-1,-5.356242657E-1
2.296879000E0,7.509741932E-2,2.315958142E-1,-3.410270810E-1
2.306922000E0,3.851388991E-1,-4.082469940E-1,1.604187191E-1
2.316966000E0,7.008327842E-1,-5.943843722E-1,2.375824749E-1
2.327009000E0,9.112944007E-1,-3.689810634E-1,2.013670281E-2
2.337053000E0,9.356530309E-1,-3.398246467E-1,1.398064196E-1
2.347096000E0,7.768418193E-1,-6.355197430E-1,3.063320220E-1
2.357139000E0,5.193580389E-1,-6.793352365E-1,2.524733245E-1
2.367183000E0,3.162171245E-1,-6.118464470E-1,1.884511858E-1
2.377226000E0,1.748142242E-1,-6.190009117E-1,1.580189914E-1
2.387270000E0,3.621559590E-2,-4.869246483E-1,8.365155756E-2
2.397313000E0,-4.382926598E-2,-1.911575645E-1,-7.031777501E-2
2.407356000E0,-1.422420144E-3,9.591335058E-2,-2.564450502E-1
2.417400000E0,1.091088057E-1,4.491788745E-1,-3.868888021E-1
2.427443000E0,2.451625019E-1,7.051497102E-1,-4.590993524E-1
2.437487000E0,3.702026308E-1,9.900349379E-1,-5.876312256E-1
2.447530000E0,5.579310060E-1,1.254037261E0,-7.856755853E-1
2.457574000E0,7.298024297E-1,1.224331021E0,-9.484866261E-1
2.467617000E0,6.758257747E-1,7.494716048E-1,-7.071123123E-1
2.477660000E0,7.374419570E-1,1.163067743E-1,-6.112236381E-1
2.487704000E0,7.577450871E-1,-1.858908981E-1,-6.520293355E-1
2.497747000E0,7.588453293E-1,-2.243980914E-1,-6.298643947E-1
2.507791000E0,8.523198962E-1,-6.677863002E-2,-6.381077170E-1
2.517834000E0,1.023543239E0,-1.794982329E-2,-7.305535078E-1
2.527877000E0,1.121854663E0,1.740781963E-1,-6.577786803E-1
2.537921000E0,1.137881279E0,1.965855062E-1,-4.360928833E-1
2.547964000E0,1.058044672E0,3.235263377E-2,-2.587652504E-1
2.558008000E0,9.407455921E-1,-1.953921318E-1,-1.351021081E-1
2.568051000E0,7.812259197E-1,-3.405751288E-1,-1.222893670E-1
2.578095000E0,5.997443795E-1,-3.293267787E-1,-1.803119332E-1
2.588138000E0,3.795774281E-1,-2.607445121E-1,-1.476032585E-1
2.598181000E0,2.451982796E-1,-2.396842241E-1,-1.512486190E-1
2.608225000E0,2.210974693E-1,-1.259829551E-1,-2.588853240E-1
2.618268000E0,2.513704002E-1,5.213884264E-2,-4.177015722E-1
2.628312000E0,2.615974844E-1,2.467093915E-1,-4.712987542E-1
2.638355000E0,2.325994670E-1,3.608816266E-1,-5.052282810E-1
2.648398000E0,2.074853331E-1,2.922232151E-1,-5.419162512E-1
2.658442000E0,1.679058969E-1,1.752804816E-1,-5.410081148E-1
2.668485000E0,1.073605195E-1,1.175149232E-1,-6.372573972E-1
2.678529000E0,-1.327434741E-2,8.352740109E-2,-7.400370240E-1
2.688572000E0,-1.164108589E-1,-2.772334032E-3,-8.284885883E-1
2.698616000E0,-1.428182870E-1,-1.060306802E-1,-8.607761860E-1
2.708659000E0,-6.200706586E-2,-2.352997363E-1,-8.819687963E-1
2.718702000E0,5.635102093E-2,-1.163022295E-1,-7.521413565E-1
2.728746000E0,7.742247730E-2,-1.059308127E-1,-3.332362473E-1
2.738789000E0,2.401925996E-2,-4.690279067E-2,2.872971259E-2
2.748833000E0,8.344183862E-2,-2.531573735E-2,2.519276738E-2
2.758876000E0,2.265217602E-1,-7.355330884E-2,-1.923435181E-2
2.768919000E0,4.031530023E-1,-2.142352797E-2,-1.378632337E-2
2.778963000E0,8.395498395E-1,7.337852120E-1,2.608143687E-1
2.789006000E0,1.224889755E0,1.355627656E0,6.859315634E-1
2.799050000E0,1.497600555E0,1.941893458E0,1.153339505E0
2.809093000E0,1.572417259E0,2.446118116E0,1.491951108E0
2.819136000E0,1.424037814E0,2.369688511E0,1.644277811E0
2.829180000E0,1.130077839E0,1.861537099E0,1.519850373E0
2.839223000E0,6.250571012E-1,4.590787888E-1,1.103543162E0
2.849267000E0,1.143796965E-1,-4.236698747E-1,2.712682784E-1
2.859310000E0,4.592740536E-2,-9.897996485E-2,-2.771490216E-1
2.869354000E0,2.918679118E-1,1.260305196E-1,-5.225318670E-1
2.879397000E0,5.900620818E-1,2.035661787E-1,-8.693633676E-1
2.889440000E0,8.598488569E-1,3.332522810E-1,-1.109394550E0
2.899484000E0,1.028304935E0,4.067515135E-1,-1.247182488E0
2.909527000E0,1.074839354E0,4.197852910E-1,-1.063828111E0
2.919571375E0,6.787552834E-1,4.092178643E-1,-6.486127973E-1
2.929614375E0,-1.082088351E-1,2.283133268E-1,-1.320639253E-1
2.939657375E0,-7.713925242E-1,-2.183688283E-1,2.113503963E-1
2.949701375E0,-1.178786874E0,-6.743515134E-1,4.512293041E-1
2.959744375E0,-1.384592414E0,-9.451079965E-1,5.847856998E-1
2.969788375E0,-1.309171796E0,-1.076803565E0,6.940008998E-1
2.979831375E0,-9.951031804E-1,-9.431020021E-1,7.544913292E-1
2.989875375E0,-7.529329062E-1,-5.687534809E-1,8.486769795E-1
2.999918375E0,-6.080298424E-1,-2.976096869E-1,9.570834041E-1
3.009961375E0,-4.179299176E-1,-1.824303865E-1,9.492672682E-1
3.020005375E0,-7.468254864E-2,-9.625063092E-2,7.930441499E-1
3.030048375E0,4.413989186E-1,1.496957690E-1,3.830084205E-1
3.040092375E0,9.771700501E-1,4.341334701E-1,1.284680068E-1
3.050135375E0,1.310783505E0,7.081040740E-1,1.653559953E-1
3.060178375E0,1.412634492E0,7.794014215E-1,3.201889694E-1
3.070222375E0,1.313086867E0,4.942449927E-1,4.065291882E-1
3.080265375E0,1.121977448E0,6.931363940E-1,2.426078916E-1
3.090309375E0,8.505641818E-1,7.759801745E-1,-4.234550893E-1
3.100352375E0,7.480865717E-1,3.941112459E-1,-4.865933359E-1
3.110396375E0,6.800132394E-1,1.719035208E-5,-5.468451604E-2
3.120439375E0,5.028454661E-1,-9.145879000E-2,1.841666698E-1
3.130482375E0,2.407126576E-1,-6.196375191E-2,1.697608232E-1
3.140526375E0,5.217706412E-2,8.685341477E-2,9.573191404E-2
3.150569375E0,-4.591461644E-2,1.075317934E-1,-3.685969114E-2
3.160613375E0,-6.453191489E-2,-2.406815998E-3,-1.288527697E-1
3.170656375E0,-1.251358688E-1,-6.094815582E-2,-1.838542372E-1
3.180699375E0,-2.761200070E-1,-3.017745912E-3,-2.802278996E-1
3.190743375E0,-4.287071526E-1,-2.036104910E-3,-4.366699755E-1
3.200786375E0,-5.452964902E-1,-2.550618351E-1,-8.179422021E-1
3.210830375E0,-6.875103116E-1,-2.102259248E-1,-1.077620864E0
3.220873375E0,-7.741060853E-1,2.608491778E-1,-1.287384272E0
3.230916375E0,-4.754429460E-1,8.637710214E-1,-1.144550323E0
3.240960375E0,-2.919726446E-2,5.799166560E-1,-8.600992560E-1
3.251003375E0,2.935118079E-1,1.891478449E-1,-4.547539055E-1
3.261047375E0,3.817330897E-1,8.913201839E-2,-1.133845970E-1
3.271090375E0,3.293119669E-1,1.494536996E-1,2.353569865E-2
3.281134375E0,2.443847358E-1,1.388252825E-1,-1.293361373E-2
3.291177375E0,1.726371050E-2,-6.382929534E-2,-2.881207168E-1
3.301220375E0,-1.259903610E-1,2.300213650E-2,-2.262445688E-1
3.311264375E0,-1.054736227E-1,-1.055113673E-1,-8.807789534E-2
