"Time (s)","X (rad/s)","Y (rad/s)","Z (rad/s)"
1.129350008E-2,2.009026110E-1,-8.810808659E-1,-5.123289227E-1
2.128650004E-2,2.799607813E-2,-8.914682865E-1,-4.562979043E-1
3.128050000E-2,-2.144867182E-1,-9.291028976E-1,-3.028899431E-1
4.127450008E-2,-4.514265656E-1,-1.050426006E0,-9.142696857E-2
5.126850004E-2,-6.047379971E-1,-1.224382758E0,2.860813402E-3
6.126150000E-2,-7.042848468E-1,-1.458312750E0,-8.274942636E-2
7.125550008E-2,-7.727058530E-1,-1.786363006E0,-2.952720225E-1
8.124950004E-2,-6.960390210E-1,-2.098961353E0,-5.630573630E-1
9.124350001E-2,-4.637657106E-1,-2.140896797E0,-7.663826346E-1
1.012365001E-1,-1.910921186E-1,-1.748118997E0,-8.086600900E-1
1.112305000E-1,-2.117643692E-2,-1.384448528E0,-6.505526900E-1
1.212245000E-1,7.639405876E-2,-1.293464899E0,-4.052830338E-1
1.312175001E-1,1.475598216E-1,-1.346595645E0,-1.956395507E-1
1.412115000E-1,1.723940670E-1,-1.471240878E0,-8.873574436E-2
1.512055000E-1,1.239400953E-1,-1.650388598E0,-1.587715894E-1
1.611995000E-1,1.099623460E-2,-1.811053395E0,-3.830678165E-1
1.711925000E-1,-9.041284770E-2,-1.866937041E0,-6.663345695E-1
1.811865000E-1,-1.583894938E-1,-1.829332471E0,-9.323750734E-1
1.911805000E-1,-1.809493005E-1,-1.736831188E0,-1.101972461E0
2.011736667E-1,-1.847112924E-1,-1.672505021E0,-1.075864911E0
2.111666667E-1,-1.693601906E-1,-1.652632713E0,-8.874518871E-1
2.211606667E-1,-1.472301185E-1,-1.596354485E0,-6.674649119E-1
2.311546667E-1,-1.699818373E-1,-1.494025707E0,-5.284342766E-1
2.411486667E-1,-2.303999066E-1,-1.377937436E0,-4.957869053E-1
2.511416667E-1,-2.560481429E-1,-1.329296827E0,-5.457708240E-1
2.611356667E-1,-1.671744734E-1,-1.390134335E0,-6.700983644E-1
2.711296667E-1,2.192963473E-2,-1.469265938E0,-8.489539027E-1
2.811236667E-1,2.257802337E-1,-1.568013549E0,-1.018419862E0
2.911166667E-1,4.136699438E-1,-1.748032570E0,-1.140207767E0
3.011106667E-1,5.874524117E-1,-1.941397786E0,-1.168351769E0
3.111046667E-1,7.065653801E-1,-2.044224024E0,-1.040067434E0
3.210976667E-1,8.044757247E-1,-2.108010054E0,-6.839972734E-1
3.310916667E-1,9.603334069E-1,-2.297954798E0,-1.182489768E-1
3.410856667E-1,1.175696254E0,-2.687261820E0,4.658525586E-1
3.510796666E-1,1.440120578E0,-3.211740971E0,9.058437943E-1
3.610726667E-1,1.701725364E0,-3.673607826E0,1.202926874E0
3.710666667E-1,1.895576715E0,-3.911528349E0,1.370987058E0
3.810606666E-1,2.006360531E0,-4.013636589E0,1.375557065E0
3.910546667E-1,2.038375616E0,-4.140003204E0,1.161800623E0
4.010476667E-1,1.962320566E0,-4.342002869E0,7.884972692E-1
4.110416666E-1,1.788758755E0,-4.640129566E0,4.556848407E-1
4.210356667E-1,1.626569271E0,-5.087563992E0,4.203939736E-1
4.310296667E-1,1.544295549E0,-5.307858467E0,7.637436986E-1
4.410226666E-1,1.328014970E0,-5.205100060E0,1.327624917E0
4.510166667E-1,1.013011813E0,-4.668215275E0,2.006840467E0
4.610106667E-1,5.472519994E-1,-3.964441776E0,2.575053215E0
4.710046666E-1,-9.737697244E-2,-3.420246124E0,2.923714638E0
4.809976667E-1,-8.643247485E-1,-2.963910580E0,3.067688704E0
4.909916667E-1,-1.716764688E0,-2.475337029E0,3.085992575E0
5.009856666E-1,-2.626232147E0,-1.937882304E0,3.136085272E0
5.109796667E-1,-3.455763340E0,-1.451872706E0,3.252577066E0
5.209726667E-1,-4.068422794E0,-1.324093223E0,3.358178139E0
5.309666666E-1,-4.361051083E0,-1.449993849E0,3.421224356E0
5.409606667E-1,-4.427285194E0,-1.661088467E0,3.414062023E0
5.509536667E-1,-4.495050430E0,-1.770310044E0,3.392787457E0
5.609476666E-1,-4.640222073E0,-1.613324165E0,3.389182091E0
5.709416667E-1,-4.803384304E0,-1.108283520E0,3.320832014E0
5.809356667E-1,-4.953230858E0,-3.276887238E-1,3.138421535E0
5.909286666E-1,-4.910753727E0,5.559487343E-1,2.771353006E0
6.009226667E-1,-4.735282898E0,1.264934421E0,2.256154060E0
6.109166667E-1,-4.558501720E0,1.596506357E0,1.785711408E0
6.209106667E-1,-4.381960392E0,1.174051046E0,1.389908433E0
6.309036667E-1,-4.114713192E0,5.681481957E-1,1.030006886E0
6.408976667E-1,-3.870345354E0,-3.046060354E-2,7.550868392E-1
6.508916666E-1,-3.661275387E0,-3.275057375E-1,6.289832592E-1
6.608856667E-1,-3.404138565E0,-3.740809560E-1,5.620742440E-1
6.708786667E-1,-3.093896151E0,-6.361046433E-2,4.892859757E-1
6.808726666E-1,-2.770578623E0,3.016383648E-1,5.731537342E-1
6.908666667E-1,-2.317350149E0,1.104847074E0,9.878462553E-1
7.008606667E-1,-2.010027647E0,1.853545070E0,1.168181181E0
7.108536666E-1,-1.808511496E0,2.377415180E0,1.166862845E0
7.208476667E-1,-1.656110048E0,2.547700167E0,1.074956894E0
7.308416667E-1,-1.589427471E0,2.553435802E0,8.742015362E-1
7.408356667E-1,-1.598094463E0,2.199140072E0,5.702496171E-1
7.508286667E-1,-1.663182616E0,2.004358768E0,3.092396855E-1
7.608226667E-1,-1.774679303E0,1.741468906E0,1.469309181E-1
7.708166667E-1,-1.924520493E0,1.492428660E0,7.497143000E-2
7.808096667E-1,-2.029247761E0,1.353866577E0,4.692914337E-2
7.908036667E-1,-2.071188450E0,1.248767257E0,4.127179086E-2
8.007976667E-1,-2.178888083E0,9.896935821E-1,1.903279684E-2
8.107916667E-1,-2.517908812E0,5.168633461E-1,-3.246696293E-1
8.207846667E-1,-2.999866247E0,-9.716819972E-3,-8.882728219E-1
8.307786667E-1,-3.422890663E0,-3.843889236E-1,-1.232608914E0
8.407726667E-1,-3.714061975E0,-4.134911597E-1,-1.243510842E0
8.507666667E-1,-3.357388020E0,-8.044343442E-2,-1.276827812E0
8.607596667E-1,-2.589265347E0,2.171214074E-1,-1.606327176E0
8.707536667E-1,-1.866562963E0,1.678082943E-1,-1.840340257E0
8.807476667E-1,-1.436403632E0,-1.692898422E-1,-1.791763067E0
8.907416667E-1,-1.298465371E0,-6.082323194E-1,-1.562887192E0
9.007346667E-1,-1.392478943E0,-1.032800913E0,-1.099391460E0
9.107286667E-1,-1.601274371E0,-1.348036766E0,-6.229293346E-1
9.207226667E-1,-1.844299197E0,-1.602435708E0,-2.391497046E-1
9.307166667E-1,-2.151140928E0,-2.085131884E0,1.024912074E-1
9.407096667E-1,-2.493850946E0,-2.823850632E0,2.472763509E-1
9.507036667E-1,-2.747341633E0,-3.622056007E0,2.127282172E-1
9.606976667E-1,-2.925223112E0,-4.366333008E0,4.288599789E-1
9.706916667E-1,-3.085112572E0,-4.990674973E0,9.828822613E-1
9.806846667E-1,-3.191278458E0,-5.420606613E0,1.978859305E0
9.906786667E-1,-3.190917015E0,-5.412407875E0,3.179879189E0
1.000672667E0,-3.031968832E0,-5.028243065E0,4.230611801E0
1.010666667E0,-2.678639889E0,-4.297485352E0,4.734298229E0
1.020659667E0,-2.379858255E0,-3.118713379E0,4.174742222E0
1.030653667E0,-2.386704445E0,-1.660337090E0,2.913318396E0
1.040647667E0,-2.434332371E0,7.609179243E-3,2.303022385E0
1.050641667E0,-2.354413509E0,1.378912568E0,2.621932507E0
1.060634667E0,-2.571710587E0,2.288641214E0,3.164514065E0
1.070628667E0,-2.693250895E0,3.531149864E0,3.735878468E0
1.080622667E0,-2.428625584E0,4.708233356E0,4.080143452E0
1.090615667E0,-2.128122091E0,5.270003796E0,4.246470928E0
1.100609667E0,-2.011410236E0,5.420330524E0,3.897245407E0
1.110603667E0,-2.347674131E0,3.786472797E0,3.371016979E0
1.120597667E0,-2.400000334E0,1.650407314E0,2.628298283E0
1.130590667E0,-1.978302002E0,9.077292085E-1,1.638505816E0
1.140584667E0,-1.554705143E0,8.816837668E-1,6.028618813E-1
1.150578667E0,-1.443065524E0,8.523660898E-1,-1.995319873E-1
1.160572667E0,-1.560633063E0,7.838764787E-1,-7.626726031E-1
1.170565667E0,-1.701572895E0,8.349969387E-1,-1.136144161E0
1.180559667E0,-1.727855444E0,6.685150266E-1,-1.259575605E0
1.190553667E0,-1.534793615E0,5.757588744E-1,-1.558459044E0
1.200547667E0,-1.149722338E0,5.733481646E-1,-2.159779787E0
1.210540667E0,-6.755046844E-1,8.539817333E-1,-2.791760921E0
1.220534667E0,-2.236916870E-1,1.337911367E0,-3.215188742E0
1.230528667E0,1.046704128E-1,1.953498483E0,-3.650304317E0
1.240522667E0,3.980868459E-1,2.521373510E0,-3.947359085E0
1.250515667E0,6.808966994E-1,2.650727987E0,-3.934899569E0
1.260509667E0,7.703980803E-1,2.455005646E0,-3.816420317E0
1.270503667E0,8.512998819E-1,1.859139681E0,-2.857564926E0
1.280497667E0,6.565176249E-1,1.147253036E0,-2.078176975E0
1.290490667E0,3.419025540E-1,2.026581466E-1,-1.877462268E0
1.300484667E0,9.291590750E-2,-6.777554750E-1,-1.640889049E0
1.310478667E0,1.642851382E-1,-1.279930353E0,-1.554605961E0
1.320472667E0,3.693413436E-1,-7.637740970E-1,-1.847265482E0
1.330465667E0,6.178314090E-1,5.043352246E-1,-1.604565620E0
1.340459667E0,8.572043180E-1,2.298031092E0,-2.161256075E-1
1.350453667E0,1.396633744E0,2.980968237E0,1.153727770E0
1.360447667E0,6.143305302E-1,3.076679409E-1,1.690991759E0
1.370440667E0,-9.263947606E-1,-1.589607596E0,1.471551061E0
1.380434667E0,-1.260899067E0,-7.309397459E-1,8.882303834E-1
1.390428667E0,-8.279651999E-1,9.985951334E-2,8.947263956E-1
1.400422667E0,-1.707564741E-1,-3.254886717E-3,1.120142221E0
1.410415667E0,1.339995563E-1,-3.768892288E-1,1.354377866E0
1.420409667E0,1.544750035E-1,-4.913502932E-1,1.701492429E0
1.430403667E0,2.727104723E-1,-2.859476209E-1,2.016864538E0
1.440396667E0,3.733987212E-1,-8.814934641E-2,2.258788109E0
1.450390667E0,5.866773129E-1,-1.077602357E-1,2.149019718E0
1.460384667E0,9.578226209E-1,5.851688609E-2,1.575859070E0
1.470378667E0,1.456385374E0,5.589192510E-1,1.168490171E0
1.480371667E0,1.976951003E0,1.276864529E0,9.510869980E-1
1.490365667E0,2.181019068E0,1.529923439E0,9.964932203E-1
1.500359667E0,2.052426815E0,1.530642509E0,1.034085035E0
1.510353667E0,1.924650073E0,1.534603357E0,1.158868194E0
1.520346667E0,1.613777399E0,9.337437749E-1,1.380332589E0
1.530340667E0,1.046407700E0,-1.804093644E-2,1.484779716E0
1.540334667E0,6.638882756E-1,-6.024069190E-1,1.482825041E0
1.550328667E0,3.479390740E-1,-8.583347201E-1,1.251597404E0
1.560321667E0,-1.110323705E-2,-9.336084723E-1,9.011832476E-1
1.570315667E0,-1.191162825E0,-1.181789756E0,2.555336356E-1
1.580309667E0,-1.949265361E0,-1.987804055E0,-4.871545359E-2
1.590303667E0,-1.740844607E0,-2.015248299E0,-2.187601089E0
1.600296667E0,-1.317913890E0,-1.924117208E0,-3.331135750E0
1.610290667E0,-5.333471298E-1,-1.846220613E0,-3.295313597E0
1.620284667E0,-1.770324409E-1,-1.734761238E0,-2.894266129E0
1.630278667E0,-1.482855380E-1,-1.927985191E0,-2.563654900E0
1.640271667E0,-2.789846957E-1,-1.887163162E0,-2.168647766E0
1.650265667E0,-7.457831502E-2,-1.476193428E0,-1.650960684E0
1.660259667E0,2.705101073E-1,-7.810569406E-1,-1.556596398E0
1.670253667E0,4.435470700E-1,2.843215466E-1,-2.123753071E0
1.680246667E0,2.215936333E-1,1.289051533E0,-2.974109888E0
1.690240667E0,1.024710014E-1,1.492298484E0,-3.974879265E0
1.700234667E0,5.154620409E-1,1.921234846E0,-4.905596733E0
1.710228667E0,1.207421541E0,2.332690716E0,-5.236449718E0
1.720221667E0,1.941523552E0,2.401385307E0,-4.017864227E0
1.730215667E0,2.365685940E0,2.686259031E0,-2.206497669E0
1.740209667E0,2.225760460E0,1.720460057E0,-7.176167965E-1
1.750202667E0,1.223850369E0,3.202627897E-1,-3.509511054E-1
1.760196667E0,5.426670909E-1,2.532568574E-1,-2.069579959E-1
1.770190667E0,2.572104931E-1,3.919854760E-1,-1.522038728E-1
1.780184667E0,1.244604662E-1,2.911403477E-1,-1.819849312E-1
1.790177667E0,1.407204568E-1,3.083765209E-1,-1.920827329E-1
1.800171667E0,1.148324013E-1,3.722721338E-1,-1.442361176E-1
1.810165667E0,9.843945503E-2,4.117354751E-1,-6.690898538E-2
1.820159667E0,1.208454296E-1,3.895236552E-1,2.185790055E-2
1.830152667E0,5.309359357E-2,5.577031374E-1,1.254235804E-1
1.840146667E0,-6.996282190E-2,8.639584184E-1,3.340364397E-1
1.850140667E0,-2.170554101E-1,1.001389861E0,5.789237618E-1
1.860134667E0,-3.527797163E-1,9.959200025E-1,8.649680018E-1
1.870127667E0,-4.579519629E-1,9.598540664E-1,1.196726441E0
1.880121667E0,-4.259924293E-1,7.392697930E-1,1.577346206E0
1.890115667E0,-3.213992715E-1,3.092240691E-1,1.901045680E0
1.900109667E0,-2.438695878E-1,-1.392871588E-1,1.964989424E0
1.910102667E0,-1.447225958E-1,-5.124184489E-1,1.760963321E0
1.920096667E0,-1.019128114E-1,-7.834179997E-1,1.503812671E0
1.930090667E0,-2.489877865E-2,-1.317333579E0,1.381509185E0
1.940084667E0,3.372112662E-2,-1.403555512E0,1.094367743E0
1.950077667E0,1.539798081E-1,-1.190555811E0,8.485516310E-1
1.960071667E0,3.810590506E-1,-1.020172119E0,7.237241864E-1
1.970065667E0,6.662511826E-1,-7.775269151E-1,6.397226453E-1
1.980059667E0,8.889021277E-1,-3.444386125E-1,6.982346773E-1
1.990052667E0,9.703120589E-1,-9.912326187E-2,6.677026153E-1
2.000046667E0,8.425058722E-1,-4.246563613E-1,2.763833106E-1
2.010040667E0,5.647615790E-1,-8.875561357E-1,3.044520915E-1
2.020034667E0,2.959546149E-1,-1.033476830E0,5.408385396E-1
2.030027667E0,4.224499762E-1,-8.582196236E-1,7.049213648E-1
2.040021667E0,8.240858316E-1,-7.634587884E-1,9.820552468E-1
2.050015667E0,1.154718280E0,-6.475461125E-1,1.150515079E0
2.060009667E0,1.363359928E0,-4.797741771E-1,1.369010687E0
2.070002667E0,1.554951429E0,-2.508834004E-1,1.486928105E0
2.079996667E0,1.699371457E0,-1.385368705E-1,1.330840230E0
2.089990667E0,1.659626245E0,-3.225429356E-1,1.117387891E0
2.099984667E0,1.359839797E0,-4.578243494E-1,6.583071947E-1
2.109977667E0,9.284235239E-1,-2.705835700E-1,1.111474484E-1
2.119971667E0,5.114291906E-1,-4.714860767E-2,-1.988348961E-1
2.129965667E0,9.526750445E-2,1.461798102E-1,-4.231383204E-1
2.139959667E0,-1.972802132E-1,4.132565260E-1,-5.360941887E-1
2.149952667E0,-2.676201761E-1,3.754866123E-1,-3.905392587E-1
2.159946667E0,-2.477982789E-1,2.276577652E-1,-1.785561740E-1
2.169940667E0,-2.008435577E-1,2.303006947E-1,2.854694054E-2
2.179934667E0,-2.426025271E-2,3.225986362E-1,1.176565811E-1
2.189927667E0,3.164638281E-1,2.213788778E-1,1.144162714E-1
2.199921667E0,5.004898310E-1,-6.162382364E-1,2.833091654E-2
2.209915542E0,3.996098340E-1,-1.734433174E0,-1.638189107E-1
2.219908542E0,-5.073627830E-2,-2.068252563E0,-4.456812143E-1
2.229902542E0,-5.346903205E-1,-1.526529551E0,-6.042290926E-1
2.239896542E0,-5.971081853E-1,-5.974972248E-1,-6.920652390E-1
2.249890542E0,-1.660304815E-1,1.160066128E-1,-7.110929489E-1
2.259883542E0,4.239653945E-1,6.931511760E-1,-5.935583115E-1
2.269877542E0,8.362653255E-1,1.029732823E0,-3.151034117E-1
2.279871542E0,1.090152025E0,9.969372153E-1,6.523378193E-3
2.289865542E0,1.177590966E0,7.915264964E-1,2.590122521E-1
2.299858542E0,1.051871419E0,5.835213661E-1,3.016854227E-1
2.309852542E0,8.276776671E-1,4.835349023E-1,3.017641306E-1
2.319846542E0,4.853578508E-1,6.100150347E-1,4.665597379E-1
2.329840542E0,2.153473720E-2,8.720734119E-1,7.114701271E-1
2.339833542E0,-3.329711258E-1,1.026165843E0,8.883932233E-1
2.349827542E0,-4.283439815E-1,7.790989876E-1,9.814816117E-1
2.359821542E0,-4.866198301E-1,3.746180832E-1,8.768476248E-1
2.369815542E0,-6.803474426E-1,4.384241700E-1,6.820034385E-1
2.379808542E0,-7.810919285E-1,6.705554128E-1,4.363020658E-1
2.389802542E0,-7.716363668E-1,7.426936030E-1,2.224186361E-1
2.399796542E0,-6.176465154E-1,8.408880830E-1,-1.057659015E-1
2.409790542E0,-3.439964652E-1,6.152262092E-1,-3.080206513E-1
2.419783542E0,8.974643052E-2,1.163432933E-2,-2.860823572E-1
2.429777542E0,3.794885874E-1,-3.843792155E-2,-2.755494714E-1
2.439771542E0,7.494996190E-1,3.130860329E-1,-2.430559844E-1
2.449765542E0,1.433934093E0,8.394103050E-1,-2.041524500E-1
2.459758542E0,2.053963184E0,1.050490618E0,7.685019076E-2
2.469752542E0,2.490837097E0,2.471930981E-1,8.074404001E-1
2.479746542E0,2.842183828E0,-1.147212744E0,1.515226126E0
2.489740542E0,2.972793341E0,-2.153192997E0,1.687672615E0
2.499733542E0,1.628838420E0,-3.543095827E0,7.511349320E-1
2.509727542E0,1.306783706E-1,-4.991197586E0,1.420055389E0
2.519721542E0,1.534774303E-1,-4.049223900E0,1.535285830E0
2.529715542E0,-4.436964393E-1,-3.132035494E0,7.953093052E-1
2.539708542E0,-1.343809962E0,-2.599983692E0,8.890405893E-1
2.549702542E0,-1.670487881E0,-1.841224909E0,6.377910972E-1
2.559696542E0,-2.127467394E0,-1.501197100E0,3.440193832E-1
2.569690542E0,-2.433439016E0,-7.763772011E-1,2.008265108E-1
2.579683542E0,-2.244472265E0,-3.997580707E-1,2.646182775E-1
2.589677542E0,-2.127930403E0,-3.047310114E-1,3.297627270E-1
2.599671542E0,-2.063754797E0,-6.983913481E-2,4.106541276E-1
2.609665542E0,-2.085168362E0,3.737348318E-1,4.182790220E-1
2.619658542E0,-2.033636093E0,1.267125726E0,3.375825584E-1
2.629652542E0,-1.425493240E0,1.378252983E0,7.221987844E-2
2.639646542E0,-7.644506097E-1,1.257897615E0,1.719621867E-1
2.649640542E0,-3.139715493E-1,-1.327333450E-1,4.576563537E-1
2.659633542E0,-3.211245537E-1,-1.116709828E0,8.105624914E-1
2.669627542E0,-3.649546504E-1,-1.461961031E0,1.031199098E0
2.679621542E0,-3.439486921E-1,-1.182900906E0,9.994140267E-1
2.689615542E0,-3.060467243E-1,-1.735977829E-1,8.520315886E-1
2.699608542E0,-1.409294009E-1,6.994956136E-1,8.074950576E-1
2.709602542E0,-6.652439386E-2,1.019351482E0,8.736739755E-1
2.719596542E0,-1.263472438E-1,8.863222003E-1,8.932724595E-1
2.729590542E0,-2.902348638E-1,5.768933892E-1,9.152749181E-1
2.739583542E0,-4.879567325E-1,5.011653304E-1,8.542224765E-1
2.749577542E0,-6.739618778E-1,7.506036758E-1,7.333365083E-1
2.759571542E0,-9.456676841E-1,1.030324817E0,6.793398261E-1
2.769565542E0,-1.194754839E0,1.111280560E0,7.335196137E-1
2.779558542E0,-1.393445611E0,1.150523067E0,6.426973343E-1
2.789552542E0,-1.384619355E0,1.113086343E0,2.524020672E-1
2.799546542E0,-1.064790487E0,1.039149284E0,-4.608486593E-1
2.809539542E0,-4.543200135E-1,8.816385269E-1,-1.204991460E0
2.819533542E0,-5.646088161E-3,2.909227312E-1,-1.467894673E0
2.829527542E0,1.976736486E-1,-2.585268319E-1,-1.332843661E0
2.839521542E0,5.330822468E-1,-4.240465462E-1,-1.183943152E0
2.849515542E0,8.987298608E-1,-4.104456007E-1,-8.724818826E-1
2.859508542E0,9.921271801E-1,-2.772694528E-1,-7.633876204E-1
2.869502542E0,8.267412782E-1,1.373213232E-1,-8.589274883E-1
2.879496542E0,6.373865008E-1,5.106142163E-1,-1.036051154E0
2.889490542E0,4.602327049E-1,6.336407661E-1,-1.133227229E0
2.899483542E0,3.383052051E-1,3.803810477E-1,-1.053554058E0
2.909477542E0,1.954530925E-1,-1.338367611E-1,-8.701888919E-1
2.919471542E0,7.449284196E-2,-5.788261890E-1,-5.850484967E-1
2.929465542E0,-2.119258605E-2,-6.911291480E-1,-1.798326969E-1
2.939458542E0,-1.177343056E-1,-8.328858018E-1,2.403395623E-1
2.949452542E0,-1.497440636E-1,-9.037131071E-1,5.675819516E-1
2.959446542E0,-1.211718023E-1,-7.044756413E-1,6.194589734E-1
2.969440542E0,-1.613346301E-2,-6.087889075E-1,5.210541487E-1
2.979433542E0,1.091403067E-1,-5.682233572E-1,3.589933217E-1
2.989427542E0,2.005900443E-1,-4.655112922E-1,1.272920221E-1
2.999421542E0,3.563463390E-1,-4.006891549E-1,-1.242227703E-1
3.009415542E0,5.667012334E-1,-5.443581343E-1,-2.592573166E-1
3.019408542E0,8.356759548E-1,-9.130474925E-1,-3.799810708E-1
3.029402542E0,1.065260410E0,-1.471817851E0,-6.697058678E-1
3.039396542E0,1.031580687E0,-1.767132401E0,-1.204013348E0
3.049389542E0,7.816129327E-1,-1.790049672E0,-1.608851075E0
3.059383542E0,5.594615936E-1,-1.268332720E0,-1.482258677E0
3.069377542E0,4.285495877E-1,-7.464579344E-1,-1.166169882E0
3.079371542E0,3.505714238E-1,-5.341563225E-1,-1.024709940E0
3.089364542E0,2.712191045E-1,-4.106664658E-1,-1.194755554E0
3.099358542E0,2.142527550E-1,-3.177687526E-1,-1.239129901E0
3.109352542E0,7.124491781E-2,-1.500445604E-1,-8.202835917E-1
3.119346542E0,-1.338315308E-1,-1.179702654E-1,-6.986831427E-1
3.129339542E0,-3.287536502E-1,-2.229839563E-1,-8.936017752E-1
3.139333542E0,-5.400575995E-1,-9.418816864E-2,-1.117790699E0
3.149327542E0,-7.340993881E-1,4.558463097E-1,-1.213030338E0
3.159321542E0,-9.328641295E-1,1.181808233E0,-1.168142200E0
3.169314542E0,-1.309608459E0,1.736224890E0,-1.123407364E0
3.179308542E0,-1.795052409E0,1.935019732E0,-1.087624669E0
3.189302542E0,-2.038722992E0,1.874841332E0,-8.823186159E-1
3.199296542E0,-1.708054185E0,1.710844636E0,-4.535103142E-1
3.209290292E0,-8.619368076E-1,1.567914605E0,2.956355736E-2
3.219284292E0,3.034747243E-1,1.758518696E0,1.867856681E-1
3.229278292E0,9.396537542E-1,1.583327532E0,1.531715691E-1
3.239272292E0,1.026126266E0,1.110355973E0,1.704589427E-1
3.249265292E0,8.561407924E-1,6.330755949E-1,1.655886471E-1
3.259259292E0,5.354314446E-1,3.342880905E-1,1.556542516E-1
3.269253292E0,1.758492738E-1,9.660903364E-2,1.419409961E-1
3.279247292E0,-1.011735350E-1,2.908650637E-1,9.909979254E-2
3.289240292E0,-3.818482459E-1,6.700250506E-1,2.161714016E-3
3.299234292E0,-6.128604412E-1,8.402659893E-1,-2.060554028E-1
3.309228292E0,-6.501014829E-1,8.118749261E-1,-3.333904445E-1
3.319222292E0,-5.776027441E-1,8.536506295E-1,-3.371559083E-1
3.329215292E0,-4.258721173E-1,9.488142729E-1,-2.398446649E-1
3.339209292E0,-2.574293017E-1,1.147447705E0,-7.161651552E-2
3.349203292E0,-4.220292345E-2,1.301579595E0,1.097806096E-1
