"Time (s)","X (rad/s)","Y (rad/s)","Z (rad/s)"
4.792191670E-2,-3.177218139E-2,-1.159628704E-1,-6.642419845E-2
5.791591667E-2,-2.513245866E-2,-1.365945488E-1,-6.154230982E-2
6.791091664E-2,-1.690622047E-2,-1.555506587E-1,-5.701839924E-2
7.790941664E-2,-9.312408045E-3,-1.801308095E-1,-5.106174201E-2
8.790341672E-2,9.652493522E-3,-1.737626493E-1,-4.629362002E-2
9.789841669E-2,3.719156608E-2,-1.747327447E-1,-4.805062711E-2
1.078924167E-1,5.109486356E-2,-1.700152308E-1,-5.414207280E-2
1.178874166E-1,6.642788649E-2,-1.637444645E-1,-6.880394369E-2
1.278824167E-1,7.318725437E-2,-1.502185464E-1,-8.623167127E-2
1.378764167E-1,7.559835166E-2,-1.112652719E-1,-1.048777401E-1
1.478714166E-1,8.270180225E-2,-7.079853863E-2,-1.262903661E-1
1.578664166E-1,8.611682802E-2,-3.725700453E-2,-1.440264732E-1
1.678604167E-1,9.480299801E-2,-3.633555025E-2,-1.487855464E-1
1.778554167E-1,8.646897972E-2,-4.520294070E-2,-1.440817118E-1
1.878494166E-1,7.460059971E-2,-7.644554973E-2,-1.287221909E-1
1.978444167E-1,6.676384062E-2,-8.667489886E-2,-1.105647907E-1
2.078394167E-1,6.149664894E-2,-8.057253063E-2,-8.984246850E-2
2.178334167E-1,6.144291162E-2,-6.868714094E-2,-7.798493654E-2
2.278284166E-1,7.706847787E-2,-4.164832830E-2,-6.624545902E-2
2.378224167E-1,9.086005390E-2,-3.945426270E-2,-6.134600565E-2
2.478174167E-1,1.058059782E-1,-4.236456752E-2,-4.497449100E-2
2.578124166E-1,1.189454943E-1,-5.179888755E-2,-3.951540217E-2
2.678064167E-1,1.326682270E-1,-4.988034442E-2,-3.193737939E-2
2.778014167E-1,1.473464370E-1,-4.020974413E-2,-2.937610447E-2
2.877954167E-1,1.585194618E-1,-2.007757872E-2,-3.422145918E-2
2.977904166E-1,1.659654528E-1,3.633656539E-3,-4.288424924E-2
3.077854167E-1,1.763658971E-1,1.868184656E-2,-4.492609203E-2
3.177794167E-1,1.821888387E-1,3.130788356E-2,-4.453608394E-2
3.277744167E-1,1.781480163E-1,4.381622002E-2,-4.525380582E-2
3.377694166E-1,1.735290140E-1,4.078191891E-2,-4.870693386E-2
3.477634167E-1,1.650239378E-1,4.491195083E-2,-5.955212563E-2
3.577584167E-1,1.506574750E-1,4.895157740E-2,-7.276520133E-2
3.677524166E-1,1.463133246E-1,6.386341155E-2,-8.560110629E-2
3.777474167E-1,1.413357556E-1,9.663726389E-2,-1.027818620E-1
3.877424167E-1,1.279118061E-1,1.401629001E-1,-1.212024093E-1
3.977364167E-1,1.199209243E-1,1.709331572E-1,-1.382857412E-1
4.077314166E-1,1.321786642E-1,1.920778602E-1,-1.418762058E-1
4.177254167E-1,1.476060748E-1,1.992921978E-1,-1.435429007E-1
4.277204167E-1,1.624521315E-1,2.108750790E-1,-1.313890368E-1
4.377154167E-1,1.936183870E-1,2.037350535E-1,-1.168644726E-1
4.477094166E-1,2.138011456E-1,1.725917906E-1,-1.028282791E-1
4.577044167E-1,2.152662873E-1,1.295836121E-1,-9.338679910E-2
4.676984167E-1,2.301714718E-1,9.235075116E-2,-8.832120150E-2
4.776934166E-1,2.428276241E-1,5.128617585E-2,-8.265019953E-2
4.876884166E-1,2.353204489E-1,3.613461740E-3,-7.848421484E-2
4.976824167E-1,1.932871491E-1,-8.879832923E-2,-9.199771285E-2
5.076774167E-1,1.273696423E-1,-1.908988655E-1,-1.272369325E-1
5.176714166E-1,5.892588943E-2,-1.749855280E-1,-1.745697558E-1
5.276664167E-1,3.809890524E-2,-1.294792891E-1,-2.303163707E-1
5.376614167E-1,4.921800271E-2,-9.646952152E-2,-2.742763460E-1
5.476554167E-1,5.489559844E-2,-5.688828975E-2,-2.953347564E-1
5.576504166E-1,3.207096457E-2,6.073703058E-3,-2.909837961E-1
5.676454167E-1,3.307843581E-2,-5.616649985E-2,-3.016740084E-1
5.776394167E-1,8.383670449E-2,-1.954361610E-2,-3.134467006E-1
5.876344166E-1,1.496191770E-1,-1.867356151E-2,-2.959569395E-1
5.976284167E-1,1.936245710E-1,8.561442606E-3,-2.758089602E-1
6.076234167E-1,2.391073853E-1,5.653988570E-2,-2.495733500E-1
6.176184167E-1,2.379170656E-1,1.541411281E-1,-2.367646396E-1
6.276124166E-1,2.395248115E-1,1.850178242E-1,-2.237135619E-1
6.376074167E-1,2.501326203E-1,1.546414196E-1,-1.824236065E-1
6.476014167E-1,2.855744958E-1,9.487050027E-2,-1.473993063E-1
6.575964167E-1,3.392554224E-1,5.358362570E-2,-1.109737009E-1
6.675914166E-1,3.802249432E-1,2.386434749E-2,-6.638119370E-2
6.775854167E-1,3.887517750E-1,2.756135538E-3,-2.078910545E-2
6.875804167E-1,3.720058203E-1,-4.001902416E-3,2.050001174E-2
6.975744166E-1,3.393496871E-1,3.284432925E-3,5.174185336E-2
7.075694167E-1,2.865842283E-1,1.972918585E-2,7.530869544E-2
7.175644167E-1,2.198685557E-1,3.173489496E-2,7.945077121E-2
7.275584167E-1,1.364239901E-1,4.962787405E-2,7.697402686E-2
7.375534166E-1,5.693741888E-2,7.226344198E-2,5.513244122E-2
7.475474167E-1,-2.735934965E-2,1.139086261E-1,2.801640332E-2
7.575424167E-1,-8.270601928E-2,1.861223280E-1,5.846443120E-3
7.675374167E-1,-1.040243506E-1,2.645862401E-1,-2.911686711E-2
7.775314166E-1,-1.420555860E-1,3.287078142E-1,-5.574733764E-2
7.875264167E-1,-1.772870868E-1,3.574598134E-1,-6.785939634E-2
7.975214167E-1,-1.895425320E-1,3.657739758E-1,-6.929825991E-2
8.075154166E-1,-2.000028938E-1,3.277264833E-1,-8.259914815E-2
8.175104166E-1,-2.495135814E-1,3.023093939E-1,-9.552264214E-2
8.275044167E-1,-3.129420877E-1,2.609582245E-1,-9.423127770E-2
8.374994167E-1,-3.368131220E-1,1.340551674E-1,-1.179643869E-1
8.474944166E-1,-3.234421909E-1,9.434743226E-2,-1.811292320E-1
8.574884167E-1,-3.149440587E-1,2.705473006E-1,-2.712155879E-1
8.674834167E-1,-3.784034550E-1,3.745453358E-1,-3.439087272E-1
8.774774167E-1,-4.919677675E-1,3.280264139E-1,-3.890404105E-1
8.874724166E-1,-5.896711349E-1,2.671633065E-1,-3.892273605E-1
8.974674167E-1,-6.354957223E-1,3.829725087E-2,-3.599295616E-1
9.074614167E-1,-6.750233769E-1,-1.704700887E-1,-2.981476784E-1
9.174564166E-1,-6.904246807E-1,-1.111257598E-1,-2.604101002E-1
9.274504167E-1,-6.337257624E-1,3.998785466E-2,-2.325773835E-1
9.374454167E-1,-5.471177697E-1,7.570012659E-2,-2.526300251E-1
9.474404167E-1,-5.011798143E-1,6.960478611E-3,-2.998268306E-1
9.574344166E-1,-5.288806558E-1,-6.499302387E-2,-3.689558804E-1
9.674294167E-1,-6.338395476E-1,-1.046634689E-1,-4.472067654E-1
9.774234167E-1,-7.254378200E-1,-1.822508425E-1,-5.229751468E-1
9.874184167E-1,-7.643226385E-1,-1.218628660E-1,-5.451166630E-1
9.974134166E-1,-8.062793612E-1,2.681337297E-2,-4.880281091E-1
1.007407417E0,-9.107910991E-1,-5.147903413E-2,-4.174996018E-1
1.017402417E0,-1.055613160E0,-2.316370606E-1,-3.532128632E-1
1.027396417E0,-1.059365988E0,-2.748247683E-1,-2.832814455E-1
1.037391417E0,-9.743007421E-1,-1.925531477E-1,-2.204165459E-1
1.047386417E0,-9.550737739E-1,-8.251692355E-2,-2.306766361E-1
1.057380417E0,-9.489938021E-1,-1.884880476E-2,-3.136262298E-1
1.067375417E0,-1.036365986E0,8.373749256E-2,-4.461469948E-1
1.077365167E0,-1.212587357E0,9.816069901E-2,-6.038727164E-1
1.087360167E0,-1.424787760E0,3.706893884E-3,-8.035687804E-1
1.097355167E0,-1.669792414E0,-5.690580606E-2,-1.020492435E0
1.107349167E0,-1.886536956E0,-2.427222878E-1,-1.183859229E0
1.117344167E0,-2.035737276E0,-5.888961554E-1,-1.272272706E0
1.127338167E0,-2.134090662E0,-8.385656476E-1,-1.278264880E0
1.137333167E0,-2.182533026E0,-7.782314420E-1,-1.251712918E0
1.147328167E0,-2.152716398E0,-5.231122971E-1,-1.164567709E0
1.157322167E0,-1.995676160E0,-4.024890065E-1,-1.037876248E0
1.167317167E0,-1.822133303E0,-3.710503876E-1,-9.026169777E-1
1.177311167E0,-1.738662720E0,-2.047709972E-1,-7.962872982E-1
1.187306167E0,-1.498406649E0,1.075968705E-2,-8.919717669E-1
1.197301167E0,-1.282834411E0,3.036112487E-1,-9.978696108E-1
1.207295167E0,-1.213922501E0,5.923376083E-1,-9.859127998E-1
1.217290167E0,-1.150171399E0,7.921266556E-1,-9.277027845E-1
1.227284167E0,-1.013680696E0,9.072377682E-1,-8.855034113E-1
1.237279167E0,-8.372713923E-1,7.736310959E-1,-8.508569598E-1
1.247274167E0,-6.195625067E-1,4.882728457E-1,-8.043856025E-1
1.257268167E0,-4.146220982E-1,2.381500006E-1,-7.290213704E-1
1.267263167E0,-2.581549883E-1,1.133140624E-1,-6.010019183E-1
1.277257167E0,-1.627477556E-1,7.522150129E-2,-4.583194256E-1
1.287252167E0,-1.202253401E-1,-3.909495473E-2,-3.279336989E-1
1.297247167E0,-9.974223375E-2,-2.170870006E-1,-2.255594134E-1
1.307241167E0,-6.100042537E-2,-3.536120951E-1,-1.417385489E-1
1.317236167E0,2.550718002E-2,-4.242028296E-1,-7.170017064E-2
1.327230167E0,1.444966793E-1,-4.643209577E-1,-1.231727377E-2
1.337225167E0,2.662239075E-1,-4.675765932E-1,3.048092313E-2
1.347220167E0,3.790777624E-1,-4.386338890E-1,7.818639278E-2
1.357214167E0,4.734605253E-1,-3.302641511E-1,1.387902349E-1
1.367209167E0,5.543564558E-1,-2.225970626E-1,2.041167766E-1
1.377203167E0,6.149794459E-1,-1.407416761E-1,2.737277150E-1
1.387198167E0,6.552150249E-1,-9.014426917E-2,3.571190238E-1
1.397193167E0,6.683803201E-1,-4.879150167E-2,4.370304942E-1
1.407187167E0,6.788632870E-1,7.620376535E-3,5.266130567E-1
1.417182167E0,7.050313354E-1,9.146912396E-2,6.133792400E-1
1.427176167E0,7.449137568E-1,2.071198225E-1,6.855863333E-1
1.437171167E0,7.980297804E-1,3.198862672E-1,7.522686720E-1
1.447165167E0,8.581983447E-1,4.169353247E-1,8.116638064E-1
1.457160167E0,9.062672257E-1,4.674184620E-1,8.624103665E-1
1.467155167E0,9.611863494E-1,4.915150106E-1,8.983225822E-1
1.477149167E0,9.786266685E-1,4.926868379E-1,9.267247319E-1
1.487144167E0,9.772897363E-1,4.238225520E-1,9.518772364E-1
1.497138167E0,9.637781978E-1,3.018640876E-1,9.672136307E-1
1.507133167E0,9.574779868E-1,1.888712347E-1,9.644172788E-1
1.517128167E0,9.503980279E-1,6.997843087E-2,9.401718974E-1
1.527122167E0,9.586615562E-1,-5.463353917E-2,8.982777596E-1
1.537117167E0,9.517893791E-1,-1.698368937E-1,8.566337228E-1
1.547111167E0,9.387990236E-1,-2.436972708E-1,8.069042563E-1
1.557106167E0,9.367038012E-1,-2.632206678E-1,7.676935792E-1
1.567101167E0,9.601106048E-1,-2.925884128E-1,7.475257516E-1
1.577095167E0,9.702632427E-1,-2.978301048E-1,7.193326950E-1
1.587090167E0,9.740401506E-1,-2.709745169E-1,6.791905761E-1
1.597084167E0,9.956112504E-1,-2.215212733E-1,6.283574104E-1
1.607079167E0,1.010773182E0,-1.584456414E-1,5.625807643E-1
1.617073167E0,1.002136827E0,-7.815763354E-2,4.804385602E-1
1.627068167E0,9.449988604E-1,3.541127220E-2,3.929619789E-1
1.637063167E0,8.686029911E-1,3.659265861E-2,3.090105057E-1
1.647057167E0,7.381911874E-1,-4.777202010E-2,2.198454589E-1
1.657052167E0,5.709115863E-1,-8.693736792E-2,1.195120066E-1
1.667046167E0,4.240869284E-1,-1.117151454E-1,3.873539716E-2
1.677041167E0,3.683819771E-1,-1.775838733E-1,4.215980414E-3
1.687036167E0,3.302258253E-1,-1.994920969E-1,7.235206198E-3
1.697030167E0,3.462466896E-1,-2.804778516E-1,5.209370703E-2
1.707025167E0,4.540573061E-1,-4.092723429E-1,9.105229378E-2
1.717019167E0,5.419016480E-1,-5.172227025E-1,1.427217424E-1
1.727014167E0,5.854312778E-1,-6.389227509E-1,1.621295363E-1
1.737009167E0,5.841439366E-1,-6.390729547E-1,1.690892577E-1
1.747003167E0,5.771286488E-1,-5.608924031E-1,1.456310749E-1
1.756998167E0,6.035640836E-1,-5.298631787E-1,8.746419102E-2
1.766992167E0,6.298965812E-1,-4.391471446E-1,1.379156206E-2
1.776987167E0,7.040665150E-1,-4.038673341E-1,1.294129528E-2
1.786981167E0,7.216063738E-1,-5.023142695E-1,3.028246760E-2
1.796976167E0,6.878902912E-1,-5.260393620E-1,8.055511117E-2
1.806971167E0,6.651260853E-1,-4.647122920E-1,7.043430209E-2
1.816965167E0,6.134643555E-1,-2.827181220E-1,2.338522300E-2
1.826960167E0,6.019510031E-1,-7.551139593E-2,-1.789883338E-2
1.836954167E0,6.335602999E-1,1.577053219E-3,-4.346866161E-2
1.846949167E0,6.306915283E-1,-1.622005366E-2,-4.064757377E-2
1.856943167E0,6.010915637E-1,-2.539238036E-1,-2.431156859E-2
1.866938167E0,4.856126308E-1,-4.057897627E-1,-1.045247819E-2
1.876933167E0,3.610918522E-1,-3.419580162E-1,-1.313488558E-2
1.886927167E0,3.216829300E-1,-3.027336597E-1,-4.974959884E-3
1.896922167E0,2.743417025E-1,-2.015178055E-1,-4.469200037E-3
1.906916167E0,2.177330106E-1,-5.672014132E-2,-4.166051373E-2
1.916911167E0,1.692374647E-1,-5.198170617E-2,-8.159685880E-2
1.926906167E0,7.102620602E-2,-2.412688136E-1,-9.978118539E-2
1.936900167E0,-5.119220912E-2,-3.105862141E-1,-6.211058795E-2
1.946895167E0,-8.356213570E-2,2.859026380E-2,-7.142180204E-2
1.956889167E0,-1.489408128E-2,5.490285158E-1,-7.470148802E-2
1.966884167E0,1.514229774E-1,8.560656905E-1,-3.318866342E-2
1.976878167E0,2.375717461E-1,9.040207863E-1,6.014503166E-2
1.986873167E0,1.303603500E-1,6.586667299E-1,5.065778643E-2
1.996868167E0,-1.415965706E-1,2.042156905E-1,-1.289434135E-1
2.006862167E0,-3.045428991E-1,-2.304489538E-2,-2.648993731E-1
2.016857167E0,-2.338499725E-1,-8.680444956E-2,-3.258368075E-1
2.026851167E0,-6.587880850E-2,-7.265267521E-2,-3.327442408E-1
2.036846167E0,1.218981966E-1,-5.503494292E-2,-2.758637965E-1
2.046840167E0,2.529880404E-1,-7.487416267E-2,-1.862087399E-1
2.056835167E0,2.791976035E-1,-1.003601402E-1,-8.742381632E-2
2.066830167E0,3.138666451E-1,-6.404554099E-2,2.050797641E-2
2.076824167E0,3.632624745E-1,2.846539207E-2,1.138410643E-1
2.086819458E0,3.949602246E-1,2.041408122E-1,1.940288544E-1
2.096813458E0,4.427661300E-1,3.832287192E-1,2.790548503E-1
2.106808458E0,4.306998849E-1,4.671009779E-1,3.583890796E-1
2.116802458E0,3.916679621E-1,4.498195946E-1,4.057413340E-1
2.126797458E0,3.344877660E-1,4.644470215E-1,3.747552037E-1
2.136792458E0,3.016780019E-1,5.299194455E-1,2.976045907E-1
2.146786458E0,2.770344317E-1,5.101377368E-1,2.175545096E-1
2.156781458E0,2.667533457E-1,4.227215350E-1,1.665218771E-1
2.166775458E0,2.577635646E-1,3.273979723E-1,1.341157258E-1
2.176770458E0,2.522102296E-1,2.416106761E-1,1.165836975E-1
2.186764458E0,2.443240732E-1,1.774085313E-1,1.191621721E-1
2.196759458E0,2.202988863E-1,1.377472728E-1,1.187266484E-1
2.206754458E0,1.969813108E-1,6.810402125E-2,1.188132018E-1
2.216748458E0,1.982897520E-1,-1.391768362E-2,1.417777687E-1
2.226743458E0,1.928901970E-1,-9.997560829E-2,1.718970537E-1
2.236737458E0,1.816163957E-1,-1.618202478E-1,2.019568384E-1
2.246732458E0,1.640483141E-1,-1.881112456E-1,2.385731786E-1
2.256726458E0,1.321343631E-1,-2.050889134E-1,2.686118484E-1
2.266721458E0,8.139848709E-2,-2.006025463E-1,2.795955241E-1
2.276715458E0,1.564009488E-2,-1.424781978E-1,2.797782123E-1
2.286710458E0,-4.498969764E-2,-8.414085209E-2,2.620788515E-1
2.296705458E0,-9.631258249E-2,-9.907495230E-3,2.513732314E-1
2.306699458E0,-1.224131584E-1,3.757347167E-2,2.355649769E-1
2.316694458E0,-1.611823440E-1,6.835079938E-2,2.209874541E-1
2.326688458E0,-1.967379451E-1,6.599789858E-2,2.005271912E-1
2.336683458E0,-2.016622871E-1,-1.957354881E-2,1.779522002E-1
2.346677458E0,-2.114374191E-1,-1.258789599E-1,1.568626314E-1
2.356672458E0,-2.368599474E-1,-1.572723240E-1,1.375405341E-1
2.366667458E0,-2.678985596E-1,-1.450774521E-1,1.346763074E-1
2.376661458E0,-3.063704669E-1,-9.565255791E-2,1.254433990E-1
2.386656458E0,-3.066346645E-1,-8.839277923E-2,1.036203876E-1
2.396650458E0,-2.865795791E-1,-8.086467534E-2,6.831703335E-2
2.406645458E0,-3.109520376E-1,-5.892775953E-4,3.708666936E-2
2.416639458E0,-3.342109919E-1,9.517853707E-2,1.950836554E-2
2.426634458E0,-3.732952774E-1,1.683691293E-1,-5.352242850E-3
2.436629458E0,-4.041858613E-1,1.595813483E-1,-3.265229240E-2
2.446623458E0,-4.202820063E-1,1.556590497E-1,-5.027735606E-2
2.456618458E0,-4.400286674E-1,2.083768994E-1,-7.896217704E-2
2.466612458E0,-4.275413752E-1,3.057279587E-1,-1.057391912E-1
2.476607458E0,-3.991203904E-1,3.615928888E-1,-1.504141241E-1
2.486601458E0,-4.201340675E-1,4.394453466E-1,-1.612611711E-1
2.496596458E0,-4.807893634E-1,4.744292796E-1,-1.434255242E-1
2.506590458E0,-5.003031492E-1,4.526054561E-1,-1.090944558E-1
2.516585458E0,-4.173449874E-1,2.044954747E-1,-2.617660165E-2
2.526580458E0,-4.664190412E-1,1.133959293E-1,1.089646388E-2
2.536574458E0,-5.959081650E-1,1.562225819E-1,-2.174611390E-2
2.546569458E0,-6.682401299E-1,2.251062989E-1,-1.091790199E-1
2.556563458E0,-6.440086961E-1,3.057656586E-1,-2.064805329E-1
2.566558458E0,-5.807077885E-1,4.244297147E-1,-2.940420806E-1
2.576552458E0,-4.812227190E-1,5.382288694E-1,-3.250722289E-1
2.586547458E0,-3.785061836E-1,6.669170260E-1,-3.591803908E-1
2.596542458E0,-4.713373184E-1,7.048969865E-1,-4.604825974E-1
2.606536458E0,-6.012867689E-1,5.065431595E-1,-6.403093338E-1
2.616531458E0,-7.090201378E-1,3.969963789E-1,-8.383060694E-1
2.626525458E0,-7.783951759E-1,4.768832326E-1,-9.395011067E-1
2.636520458E0,-8.799323440E-1,4.455932975E-1,-8.921992779E-1
2.646514458E0,-1.002229214E0,1.780425608E-1,-8.144863844E-1
2.656509458E0,-1.085825920E0,-1.888876855E-1,-7.165685892E-1
2.666503458E0,-1.222354770E0,-4.401380122E-1,-6.231733561E-1
2.676498458E0,-1.377678394E0,-5.923821926E-1,-5.616669059E-1
2.686493458E0,-1.524547935E0,-6.647006273E-1,-5.221951008E-1
2.696487458E0,-1.680992246E0,-6.294197440E-1,-5.785509348E-1
2.706482458E0,-1.824338794E0,-5.653057694E-1,-7.025674582E-1
2.716476458E0,-1.897766113E0,-6.419538260E-1,-8.279511333E-1
2.726471458E0,-1.964003444E0,-6.550211310E-1,-9.539205432E-1
2.736465458E0,-2.029933214E0,-6.387677193E-1,-1.120435238E0
2.746460458E0,-2.150677204E0,-3.889664114E-1,-1.275710106E0
2.756454458E0,-2.211192846E0,-3.192554116E-1,-1.326767921E0
2.766449458E0,-2.126606464E0,-4.019055367E-1,-1.510199785E0
2.776444458E0,-2.005882502E0,-3.795386255E-1,-1.590479374E0
2.786438458E0,-1.815184712E0,-4.369654357E-1,-1.555038333E0
2.796433458E0,-1.535397172E0,-4.683194757E-1,-1.531303048E0
2.806427458E0,-1.253561020E0,-2.581840754E-1,-1.382162333E0
2.816422458E0,-9.627165198E-1,-2.749730833E-3,-1.195278049E0
2.826416458E0,-7.320260406E-1,1.055815369E-1,-1.052241325E0
2.836411458E0,-5.041422248E-1,2.414127439E-1,-9.317821264E-1
2.846405458E0,-2.524202168E-1,4.815765917E-1,-7.670403123E-1
2.856400458E0,-1.380271744E-2,7.094450593E-1,-6.145619154E-1
2.866395458E0,1.772181094E-1,8.289083242E-1,-5.021128654E-1
2.876389458E0,3.126111329E-1,9.279886484E-1,-4.069353044E-1
2.886384458E0,3.945994675E-1,9.383184910E-1,-3.228481412E-1
2.896378458E0,4.427227974E-1,8.650888801E-1,-2.145790160E-1
2.906373458E0,4.664464891E-1,7.338371277E-1,-1.083995849E-1
2.916367458E0,5.218993425E-1,5.815323591E-1,-3.460714221E-2
2.926362458E0,5.961427093E-1,5.172476172E-1,4.724431410E-2
2.936356458E0,6.683805585E-1,5.455528498E-1,1.423523277E-1
2.946351458E0,7.029907703E-1,5.232118368E-1,2.462358475E-1
2.956345458E0,7.029726505E-1,4.150981605E-1,3.426666856E-1
2.966340458E0,6.900910139E-1,2.250936180E-1,4.309480786E-1
2.976335458E0,6.571177840E-1,3.308638185E-2,5.255347490E-1
2.986329458E0,6.025367975E-1,-1.413988769E-1,6.426560283E-1
2.996324458E0,5.235459208E-1,-2.773218155E-1,7.835344672E-1
3.006318458E0,4.500565529E-1,-3.501099944E-1,9.216427803E-1
3.016313458E0,4.134266078E-1,-3.001802266E-1,1.028696775E0
3.026307458E0,4.240121245E-1,-1.325227767E-1,1.120514870E0
3.036302458E0,4.983289540E-1,1.290598959E-1,1.188527465E0
3.046296458E0,6.071124077E-1,3.881287277E-1,1.232988358E0
3.056291458E0,7.114295959E-1,5.377072096E-1,1.218244791E0
3.066286458E0,7.998902202E-1,5.236806273E-1,1.173840284E0
3.076280458E0,8.568384647E-1,3.671649992E-1,1.113842964E0
3.086275583E0,8.865100145E-1,1.694966704E-1,1.050495744E0
3.096269583E0,9.269397855E-1,-1.259700023E-2,1.000129342E0
3.106264583E0,9.683942795E-1,-1.941196620E-1,9.453712702E-1
3.116258583E0,9.791167378E-1,-3.535652161E-1,8.895387053E-1
3.126253583E0,9.359178543E-1,-4.826552868E-1,8.466809988E-1
3.136247583E0,8.421050310E-1,-5.136952400E-1,8.016899824E-1
3.146242583E0,7.369360328E-1,-4.182699323E-1,7.123768926E-1
3.156236583E0,6.900947690E-1,-2.910067737E-1,6.003516316E-1
3.166231583E0,6.994810700E-1,-2.030675858E-1,4.933836758E-1
3.176226583E0,7.004812360E-1,-6.674746424E-2,3.742589056E-1
3.186220583E0,6.922872066E-1,1.266489029E-1,2.859295607E-1
3.196215583E0,7.161446810E-1,2.940039933E-1,2.401759624E-1
3.206209583E0,7.395171523E-1,4.132403731E-1,2.270010412E-1
3.216204583E0,7.284798622E-1,4.402757883E-1,2.341794670E-1
3.226198583E0,6.758752465E-1,3.688359857E-1,2.461282760E-1
3.236193583E0,6.061956882E-1,2.715603411E-1,2.590713203E-1
3.246187583E0,5.280774832E-1,1.973369718E-1,2.609392703E-1
3.256182583E0,4.622791409E-1,9.383089840E-2,2.556353211E-1
3.266176583E0,4.096097946E-1,-5.260327458E-2,2.437016666E-1
3.276171583E0,3.453911543E-1,-2.514774203E-1,2.369739413E-1
3.286166583E0,2.569936514E-1,-4.756897688E-1,2.372306734E-1
3.296160583E0,1.916865259E-1,-6.575234532E-1,2.507329881E-1
3.306155583E0,1.943398416E-1,-8.255161643E-1,2.638650537E-1
3.316149583E0,2.277554721E-1,-9.601151347E-1,2.567574680E-1
3.326144583E0,3.050904870E-1,-9.759577513E-1,2.321282923E-1
