"Time (s)","X (rad/s)","Y (rad/s)","Z (rad/s)"
1.619905417E-1,-4.812709987E-1,-4.428921044E-1,-8.107302785E-1
1.720346667E-1,-5.576312542E-1,-4.205020964E-1,-7.068440914E-1
1.820446667E-1,-5.926648974E-1,-4.154971242E-1,-6.238621473E-1
1.920546667E-1,-5.561473370E-1,-4.034740329E-1,-5.263169408E-1
2.020946667E-1,-4.431881905E-1,-3.600707948E-1,-4.143176973E-1
2.121046667E-1,-2.628162801E-1,-2.204308957E-1,-3.061765730E-1
2.221146667E-1,-7.231694460E-2,-1.617978066E-1,-1.953711510E-1
2.321236667E-1,8.980058879E-2,-2.353234291E-1,-8.358762413E-2
2.421646667E-1,2.269598395E-1,-2.445545048E-1,2.002225257E-3
2.521736667E-1,1.936069429E-1,-1.495155990E-1,8.417087048E-2
2.621836667E-1,2.443838120E-2,-1.442493647E-1,2.071994245E-1
2.721936667E-1,-2.631523907E-1,-3.042669892E-1,4.370938540E-1
2.822336667E-1,-2.645229101E-1,-5.171173811E-1,6.717405915E-1
2.922436667E-1,3.085422218E-1,-6.551210880E-1,5.675859451E-1
3.022536667E-1,8.288990855E-1,-2.996006906E-1,1.988944113E-1
3.122626667E-1,1.285020113E0,-3.100682497E-1,-3.075168729E-1
3.223036667E-1,1.587772250E0,-2.067797482E-1,-6.529887319E-1
3.323126667E-1,1.734861255E0,3.305122256E-1,-6.877685189E-1
3.423226667E-1,1.845224142E0,7.300588489E-1,-6.421439648E-1
3.523636667E-1,1.959381938E0,8.348484039E-1,-6.231111288E-1
3.623726667E-1,2.045271635E0,8.618289232E-1,-5.451878309E-1
3.723826667E-1,2.099666595E0,8.246072531E-1,-4.273656309E-1
3.823926667E-1,2.122627497E0,7.583100200E-1,-3.215822577E-1
3.924326667E-1,2.112433910E0,7.121715546E-1,-2.471511662E-1
4.024426667E-1,2.063917398E0,6.396972537E-1,-1.899110079E-1
4.124526667E-1,1.629126787E0,-1.348322071E-2,-1.725272238E-1
4.224616667E-1,7.618237734E-1,-5.386688113E-1,-3.190432489E-1
4.325026667E-1,-1.764696240E-1,-7.068974972E-1,-4.444293976E-1
4.425116667E-1,-1.064272165E0,-1.039900422E0,-4.851372540E-1
4.525216667E-1,-1.657719493E0,-9.528064728E-1,-4.341470301E-1
4.625316667E-1,-2.016519547E0,-5.286141038E-1,-3.819422722E-1
4.725716667E-1,-2.207829475E0,-1.678199880E-2,-3.853604496E-1
4.825816667E-1,-2.061705351E0,8.521077037E-1,-2.917568684E-1
4.925916667E-1,-1.480592370E0,1.357398868E0,-6.784149259E-2
5.026316667E-1,-7.435780168E-1,1.384984732E0,8.366148174E-2
5.126416667E-1,2.975819865E-3,1.172526002E0,1.369028538E-1
5.226516667E-1,6.001438498E-1,1.226329327E0,4.872475564E-2
5.326606667E-1,7.880455852E-1,1.432051420E0,-1.296306103E-1
5.427016667E-1,6.729737520E-1,1.233217716E0,-2.473301888E-1
5.527106667E-1,4.502652884E-1,9.644736052E-1,-1.484941542E-1
5.627206667E-1,1.538616121E-1,7.638726830E-1,2.184294760E-1
5.727306667E-1,-1.638931930E-1,5.497471094E-1,6.105701327E-1
5.827706667E-1,-4.360115230E-1,5.116943717E-1,7.568467259E-1
5.927806667E-1,-6.584800482E-1,5.488467813E-1,6.309830546E-1
6.027906667E-1,-9.102389216E-1,4.375968575E-1,3.122766614E-1
6.128006667E-1,-1.134523869E0,2.607310116E-1,2.427259460E-2
6.228406667E-1,-1.274343848E0,3.532265723E-1,-9.353307635E-2
6.328506667E-1,-1.317995667E0,4.124337137E-1,-5.899027735E-2
6.428596667E-1,-1.230197668E0,4.611944035E-2,8.484807611E-2
6.529006667E-1,-1.026200056E0,-4.580427706E-1,2.964013219E-1
6.629096667E-1,-7.926820517E-1,-7.910138369E-1,5.044535995E-1
6.729196667E-1,-5.795292854E-1,-8.265113831E-1,6.380577087E-1
6.829296667E-1,-3.420951664E-1,-3.650566339E-1,6.322083473E-1
6.929696667E-1,-6.803830713E-2,2.107608467E-1,4.824984968E-1
7.029796667E-1,2.171191424E-1,4.798749685E-1,1.549436301E-1
7.129896667E-1,5.463289618E-1,5.474172235E-1,-2.320339233E-1
7.229996667E-1,9.347643256E-1,3.930558264E-1,-5.659958720E-1
7.330396667E-1,1.367888689E0,3.774384037E-3,-8.025857806E-1
7.430496667E-1,1.834140062E0,-5.101255178E-1,-9.157376289E-1
7.530586667E-1,2.273051500E0,-8.014518619E-1,-9.278313518E-1
7.630686667E-1,2.575858355E0,-9.546721578E-1,-8.752400279E-1
7.731086667E-1,2.232165337E0,-1.279965997E0,-8.560916781E-1
7.831186667E-1,8.582054973E-1,-1.449817777E0,-8.648722768E-1
7.931286667E-1,-3.314692974E-1,-7.037086487E-1,-6.604309678E-1
8.031686667E-1,-1.139852881E0,5.907838941E-1,-4.148671031E-1
8.131786667E-1,-1.801435113E0,1.647536159E0,-2.759744823E-1
8.231886667E-1,-2.072087288E0,2.035802841E0,-1.996995509E-1
8.331976667E-1,-1.853212953E0,1.586385608E0,-9.984485060E-2
8.432386667E-1,-1.334206939E0,7.190172076E-1,7.532016188E-2
8.532486667E-1,-7.306767106E-1,-2.039243877E-1,4.667001963E-1
8.632576667E-1,-2.370009124E-1,-8.180436492E-1,1.115611434E0
8.732676667E-1,3.020789661E-2,-6.798236966E-1,1.664519310E0
8.833076667E-1,1.177648380E-1,-7.490235567E-1,2.060349226E0
8.933176667E-1,1.221633106E-1,-9.614804387E-1,2.092830181E0
9.033276667E-1,2.202606052E-1,-1.274139285E0,1.778858185E0
9.133376667E-1,3.294574022E-1,-1.490512133E0,1.201222301E0
9.233776667E-1,2.499686778E-1,-3.155773282E-1,4.903992116E-1
9.333876667E-1,7.529753447E-2,2.649808526E-1,9.483695775E-2
9.433966667E-1,-1.997004896E-1,-6.013358943E-3,-1.091880724E-1
9.534376667E-1,-4.518858492E-1,-6.121714711E-1,-3.491234183E-1
9.634476667E-1,-3.162353337E-1,-1.611429214E0,-4.518616498E-1
9.734566667E-1,1.055031046E-1,-2.351922750E0,-2.268535644E-1
9.834666667E-1,5.286549330E-1,-2.573190689E0,3.039401174E-1
9.935066667E-1,6.942707896E-1,-2.769668102E0,6.569359899E-1
1.003516667E0,8.730941415E-1,-2.858213186E0,9.342981577E-1
1.013526667E0,1.007907033E0,-3.179535389E0,1.178740501E0
1.023536667E0,1.048678637E0,-3.537797689E0,1.223577261E0
1.033576667E0,1.001668811E0,-3.640083790E0,1.140236259E0
1.043586667E0,8.063441515E-1,-3.502193213E0,1.052429199E0
1.053595667E0,5.491064787E-1,-3.512548685E0,1.020738363E0
1.063605667E0,2.644316852E-1,-3.815198898E0,1.124848604E0
1.073645667E0,1.406471897E-2,-4.328994274E0,1.432599306E0
1.083655667E0,-1.781746447E-1,-4.952149391E0,1.886310935E0
1.093665667E0,-2.598726749E-1,-5.786592484E0,2.324995995E0
1.103705667E0,-1.916586757E-1,-6.700676918E0,2.653908730E0
1.113715667E0,-6.157604977E-2,-7.411358356E0,2.857770681E0
1.123725667E0,-5.216879398E-2,-7.627167702E0,3.034142494E0
1.133735667E0,-1.865223497E-1,-7.607071400E0,3.211591959E0
1.143775667E0,-4.322054982E-1,-7.370543480E0,3.324537992E0
1.153785667E0,-8.681135774E-1,-7.003916740E0,3.489348650E0
1.163794667E0,-1.314261317E0,-6.577646255E0,3.794205904E0
1.173788042E0,-1.461298704E0,-6.144834995E0,4.154721260E0
1.183828042E0,-1.124019980E0,-5.953105450E0,4.454372883E0
1.193838042E0,-4.232336879E-1,-6.074646950E0,4.684690952E0
1.203848042E0,3.440447152E-1,-6.090604782E0,4.835109234E0
1.213858042E0,7.157109380E-1,-5.518199444E0,4.959561825E0
1.223898042E0,5.826291442E-1,-4.536368847E0,5.119420528E0
1.233908042E0,1.377027929E-1,-3.358981133E0,5.189019680E0
1.243918042E0,-4.134944379E-1,-2.456814766E0,5.192543030E0
1.253958042E0,-8.125382662E-1,-1.924364805E0,5.123053074E0
1.263968042E0,-9.668725729E-1,-1.531025648E0,4.970062733E0
1.273977042E0,-9.970352650E-1,-1.233977199E0,4.737513065E0
1.283987042E0,-1.134354472E0,-7.029057741E-1,4.498728275E0
1.294027042E0,-1.476844430E0,6.926579773E-2,4.394971848E0
1.304037042E0,-1.826627493E0,8.162615895E-1,4.360344887E0
1.314047042E0,-1.988996625E0,1.154740572E0,4.330698013E0
1.324057042E0,-1.858749628E0,9.204936624E-1,4.278440475E0
1.334097042E0,-1.415574908E0,2.987546921E-1,4.136023045E0
1.344107042E0,-7.808694839E-1,-3.512679636E-1,3.871367931E0
1.354117042E0,-8.929768950E-2,-9.445669651E-1,3.679990768E0
1.364157042E0,5.295575261E-1,-1.341744065E0,3.520322323E0
1.374167042E0,1.007682323E0,-1.454779983E0,3.368258953E0
1.384176042E0,1.259717345E0,-1.305576086E0,3.192629337E0
1.394186042E0,1.306303740E0,-9.710832238E-1,2.935532331E0
1.404226042E0,1.228918195E0,-4.983516335E-1,2.622567415E0
1.414236042E0,1.021212935E0,-2.621554956E-2,2.325863838E0
1.424246042E0,7.852093577E-1,3.251160681E-1,2.049520731E0
1.434256042E0,6.590982676E-1,5.227820277E-1,1.799516201E0
1.444296042E0,6.470158696E-1,5.472832322E-1,1.480291128E0
1.454306042E0,7.460356355E-1,4.847157300E-1,1.107798576E0
1.464316042E0,9.149463177E-1,3.776098788E-1,7.625239491E-1
1.474325042E0,1.015741348E0,3.235972524E-1,4.906381071E-1
1.484366042E0,1.002935171E0,2.871912420E-1,3.206116557E-1
1.494375042E0,8.522760868E-1,2.907724082E-1,2.641513050E-1
1.504385042E0,8.923305869E-1,2.139908969E-1,1.614896953E-1
1.514425042E0,3.929015696E-1,6.436203122E-1,-1.135160215E-3
1.524435042E0,-1.877410263E-1,1.107542038E0,-1.941398233E-1
1.534445042E0,-6.192637086E-1,1.613214016E0,-3.513864279E-1
1.544455042E0,-9.042961597E-1,1.908797026E0,-5.317598581E-1
1.554495042E0,-1.082932472E0,1.831303835E0,-6.549981833E-1
1.564505042E0,-1.158090711E0,1.492312074E0,-7.039248943E-1
1.574515042E0,-1.028344393E0,1.203632593E0,-6.875932813E-1
1.584524042E0,-8.111752272E-1,7.936851382E-1,-7.318358421E-1
1.594565042E0,-5.839545727E-1,2.937216163E-1,-8.208948970E-1
1.604574042E0,-3.294010460E-1,-1.434334964E-1,-1.089721560E0
1.614584042E0,-1.576452404E-1,-4.027097821E-1,-1.480579853E0
1.624594042E0,-4.504375532E-2,-7.570165396E-1,-1.760062218E0
1.634634042E0,-5.946663395E-2,-1.064608693E0,-2.092883348E0
1.644644042E0,5.803926289E-2,-1.208934426E0,-2.113571405E0
1.654654042E0,2.329602093E-1,-1.244515061E0,-2.054147243E0
1.664694042E0,4.194477201E-1,-1.172583342E0,-2.054158688E0
1.674704042E0,5.034603477E-1,-1.058469772E0,-2.021243811E0
1.684713042E0,6.615366340E-1,-7.555942535E-1,-2.009261370E0
1.694723042E0,7.199485898E-1,-5.338714123E-1,-1.959843278E0
1.704764042E0,6.140105128E-1,-3.501795232E-1,-1.897120357E0
1.714773042E0,4.594987035E-1,-1.986888051E-1,-1.844468117E0
1.724783042E0,3.371290565E-1,-1.657159030E-1,-1.863716364E0
1.734793042E0,2.829145491E-1,-3.504683077E-2,-1.896125197E0
1.744833042E0,1.343277991E-1,1.692218333E-1,-1.734786272E0
1.754843042E0,1.073528826E-2,1.227744520E-1,-1.615328074E0
1.764853042E0,-2.777181566E-2,-8.767826855E-2,-1.394656420E0
1.774862042E0,-1.946355402E-2,-3.134637177E-1,-1.159411192E0
1.784903042E0,7.082001865E-2,-7.860443741E-2,-9.685996771E-1
1.794912042E0,2.892634366E-3,9.234812856E-2,-8.467374444E-1
1.804922042E0,-4.326229542E-2,-2.193816379E-2,-9.166634083E-1
1.814963042E0,-1.422719657E-1,-1.484563388E-2,-1.053081989E0
1.824972042E0,-3.222408891E-1,-1.583229005E-2,-1.019572735E0
1.834982042E0,-3.644088209E-1,1.127086431E-1,-7.734829783E-1
1.844992042E0,-5.572404265E-1,5.899602771E-1,-4.593005776E-1
1.855032042E0,-5.168906450E-1,2.910401225E-1,-4.304397106E-2
1.865042042E0,-3.978840411E-1,3.197930157E-1,1.654106081E-1
1.875052042E0,-6.449924111E-1,8.679306507E-1,5.604949966E-2
1.885061042E0,-9.679960608E-1,9.650961161E-1,-2.050176263E-1
1.895102042E0,-1.173678637E0,9.816998839E-1,-3.024959862E-1
1.905111042E0,-1.273879766E0,1.038885832E0,-2.692605257E-1
1.915121042E0,-1.201604009E0,9.029424787E-1,3.954577819E-2
1.925131042E0,-9.529319406E-1,5.765973330E-1,8.624927402E-1
1.935171042E0,-5.260594487E-1,5.702987313E-1,2.161574602E0
1.945181042E0,7.924326509E-2,1.087947130E0,3.117836237E0
1.955191042E0,6.184028387E-1,1.726330757E0,3.189760447E0
1.965231042E0,7.433558106E-1,1.759006858E0,2.885670900E0
1.975241042E0,6.054719687E-1,9.874686599E-1,2.676328421E0
1.985251042E0,2.330638468E-1,3.884099424E-3,2.396853924E0
1.995260042E0,-1.250516921E-1,-7.391173244E-1,2.094040155E0
2.005301042E0,-2.578931749E-1,-1.085886717E0,1.983834863E0
2.015310042E0,-2.146722078E-1,-1.177992702E0,2.035800695E0
2.025320042E0,-2.277327329E-1,-1.390014768E0,2.216397762E0
2.035330042E0,-3.094379902E-1,-1.639294624E0,2.422458410E0
2.045370042E0,-1.803375185E-1,-1.563695788E0,2.597790241E0
2.055380042E0,8.272393793E-2,-1.371377230E0,2.923503399E0
2.065390042E0,2.943056226E-1,-1.107842684E0,3.200141907E0
2.075400042E0,4.403786957E-1,-8.311340809E-1,3.423670769E0
2.085440042E0,5.273248553E-1,-4.485445023E-1,3.582997322E0
2.095450042E0,6.131766438E-1,-1.674702168E-1,3.762910604E0
2.105459042E0,5.860116482E-1,-3.123735785E-1,3.891006231E0
2.115500042E0,4.280646443E-1,-5.858903527E-1,3.862591267E0
2.125509042E0,2.328692377E-1,-8.853375316E-1,3.826797962E0
2.135519042E0,8.561693877E-2,-1.282825351E0,3.852732897E0
2.145529042E0,5.556860194E-2,-1.708895922E0,3.893774986E0
2.155569042E0,9.728408605E-2,-2.306102514E0,3.989093781E0
2.165579042E0,1.355069578E-1,-2.874819279E0,4.114561081E0
2.175595542E0,1.515823305E-1,-3.227494001E0,4.175426483E0
2.185604542E0,2.549917400E-1,-3.442342281E0,4.099920273E0
2.195645542E0,4.053388834E-1,-3.540239096E0,3.679493666E0
2.205655542E0,5.031378865E-1,-3.665355682E0,2.914895535E0
2.215664542E0,4.985945523E-1,-3.753657341E0,1.953313351E0
2.225674542E0,4.240312278E-1,-3.474661589E0,7.724400163E-1
2.235714542E0,3.645729721E-1,-3.002067804E0,-4.758078158E-1
2.245724542E0,1.747638285E-1,-2.355161428E0,-1.394324541E0
2.255734542E0,4.821665585E-3,-1.593986750E0,-1.709401250E0
2.265774542E0,-1.093523577E-1,-7.881951332E-1,-1.629592896E0
2.275784542E0,-1.249667332E-1,-2.104388736E-2,-1.508412719E0
2.285794542E0,-8.901462704E-2,5.823782086E-1,-1.310999870E0
2.295803542E0,-2.094529197E-2,1.049702406E0,-1.072660565E0
2.305844542E0,8.973418921E-2,1.224859953E0,-8.710192442E-1
2.315854542E0,1.826502830E-1,1.110389471E0,-7.061160207E-1
2.325863542E0,2.410384417E-1,8.404910564E-1,-5.426596999E-1
2.335873542E0,2.864016294E-1,5.464729667E-1,-4.155286551E-1
2.345913542E0,3.119726777E-1,3.679804504E-1,-2.987547517E-1
2.355923542E0,3.329061866E-1,2.916992605E-1,-1.662371904E-1
2.365933542E0,3.120658398E-1,2.761416435E-1,-5.236303806E-2
2.375973542E0,2.574254870E-1,2.872946858E-1,-3.039696719E-3
2.385983542E0,2.046533078E-1,1.187769994E-1,3.398454562E-2
2.395993542E0,2.336394042E-2,-4.369272590E-1,9.703195095E-2
2.406002542E0,-2.404280007E-1,-1.060650826E0,1.753598303E-1
2.416043542E0,-4.351085126E-1,-1.494062781E0,2.337560207E-1
2.426052542E0,-5.409465432E-1,-1.712547660E0,2.253334671E-1
2.436062542E0,-5.806324482E-1,-1.693351865E0,1.675532609E-1
2.446072542E0,-5.834345818E-1,-1.508866549E0,9.701685607E-2
2.456112542E0,-5.912200212E-1,-1.274980307E0,9.949073195E-3
2.466122542E0,-6.119344831E-1,-1.104587436E0,-9.849073738E-2
2.476132542E0,-6.379876733E-1,-9.996446967E-1,-2.378385216E-1
2.486142542E0,-6.550526619E-1,-9.167675972E-1,-4.122265875E-1
2.496182542E0,-7.128579021E-1,-7.676707506E-1,-5.969708562E-1
2.506192542E0,-7.611635923E-1,-5.766218305E-1,-7.818260789E-1
2.516201542E0,-8.061419725E-1,-3.411702216E-1,-9.260743260E-1
2.526242542E0,-8.445184231E-1,-2.513917349E-2,-9.847599268E-1
2.536251542E0,-8.423442245E-1,2.954353988E-1,-9.548568726E-1
2.546261542E0,-8.881089687E-1,6.473698020E-1,-8.204604983E-1
2.556271542E0,-9.002181292E-1,9.027624130E-1,-6.581730247E-1
2.566311542E0,-8.182796240E-1,1.037838817E0,-5.011613965E-1
2.576321542E0,-6.144630909E-1,1.029586196E0,-4.147764146E-1
2.586331542E0,-3.547068834E-1,9.373551011E-1,-3.782724738E-1
2.596341542E0,-9.427131712E-2,8.015983701E-1,-3.621614277E-1
2.606381542E0,1.047526896E-1,6.705374718E-1,-3.354970813E-1
2.616391542E0,1.977193654E-1,6.054189205E-1,-2.889349163E-1
2.626400542E0,2.072437704E-1,5.992941260E-1,-1.935354322E-1
2.636410542E0,1.640637964E-1,6.117531657E-1,-6.351138651E-2
2.646450542E0,1.001118347E-1,5.946617126E-1,-2.168539912E-2
2.656460542E0,9.262754768E-2,7.488654256E-1,-1.236096323E-1
2.666470542E0,1.021681055E-1,1.091335297E0,-3.590688705E-1
2.676510542E0,9.858855605E-2,1.528009534E0,-5.753899813E-1
2.686520542E0,9.461923689E-2,1.936774254E0,-7.122403383E-1
2.696530542E0,9.826510400E-2,2.281283617E0,-7.944238782E-1
2.706540542E0,1.050324962E-1,2.556983232E0,-8.093867898E-1
2.716580542E0,1.039975956E-1,2.775272131E0,-7.509146929E-1
2.726590542E0,1.140732467E-1,2.921390057E0,-6.270516515E-1
2.736599542E0,1.550406516E-1,2.975269556E0,-4.345061481E-1
2.746609542E0,2.152558416E-1,2.930568933E0,-2.285869271E-1
2.756649542E0,2.781274915E-1,2.794039249E0,-1.153927445E-1
2.766659542E0,3.541072309E-1,2.529117346E0,-1.050670892E-1
2.776669542E0,4.412200451E-1,2.192699432E0,-1.317884475E-1
2.786679542E0,5.670257211E-1,1.817659140E0,-1.376267970E-1
2.796719542E0,7.379793525E-1,1.453076959E0,-9.090749919E-2
2.806729542E0,9.581396580E-1,1.156194210E0,-9.094126523E-3
2.816739542E0,1.209175825E0,9.128552675E-1,8.882844448E-2
2.826779542E0,1.452197194E0,6.602622271E-1,1.468715221E-1
2.836789542E0,1.607272506E0,4.288790524E-1,1.486867368E-1
2.846798542E0,1.613425136E0,1.949502677E-1,1.592544466E-1
2.856808542E0,1.486400604E0,-3.632476181E-2,1.836876273E-1
2.866848542E0,1.260613799E0,-2.456612736E-1,2.144898772E-1
2.876858542E0,9.568852782E-1,-4.145227075E-1,2.464153320E-1
2.886868542E0,6.279983521E-1,-5.348367691E-1,2.647737265E-1
2.896878542E0,3.034855425E-1,-5.855327249E-1,2.506967783E-1
2.906918542E0,3.003076091E-2,-5.885711908E-1,1.832382977E-1
2.916928542E0,-1.988508850E-1,-5.673737526E-1,9.672018886E-2
2.926937542E0,-4.038320780E-1,-4.995800853E-1,1.868324354E-2
2.936947542E0,-5.669674277E-1,-4.115370512E-1,-2.802141383E-2
2.946988542E0,-6.963139772E-1,-3.002881706E-1,-6.770726293E-2
2.956997542E0,-7.758609653E-1,-2.266309708E-1,-1.145245731E-1
2.967007542E0,-8.306376934E-1,-1.396866292E-1,-1.431128532E-1
2.977047542E0,-8.476502299E-1,-7.773245871E-2,-1.547993422E-1
2.987057542E0,-8.280739188E-1,-6.987372041E-2,-1.928674579E-1
2.997067542E0,-7.997232080E-1,-6.928436458E-2,-2.194260955E-1
3.007077542E0,-7.643867135E-1,-5.505013093E-2,-1.914124936E-1
3.017117542E0,-7.167139649E-1,-5.658570677E-2,-1.802216172E-1
3.027127542E0,-6.611569524E-1,-8.150526136E-2,-1.829498410E-1
3.037136542E0,-6.039139032E-1,-1.209274977E-1,-1.811966747E-1
3.047146542E0,-5.428088307E-1,-1.699741930E-1,-1.605456918E-1
3.057187542E0,-4.801131785E-1,-2.154245079E-1,-1.346123666E-1
3.067196542E0,-4.015794098E-1,-2.861788869E-1,-1.310439855E-1
3.077206542E0,-3.165849149E-1,-3.446241021E-1,-1.364336908E-1
3.087216542E0,-2.361324728E-1,-3.590145409E-1,-1.071688235E-1
3.097256542E0,-1.585106403E-1,-3.418267667E-1,-6.154275313E-2
3.107266542E0,-8.547167480E-2,-2.717453241E-1,-6.087085698E-3
3.117276542E0,-9.651482105E-3,-1.826183945E-1,2.880458534E-2
3.127316542E0,5.731358752E-2,-7.388997078E-2,4.060747102E-2
3.137326542E0,1.086694524E-1,4.416503012E-2,4.428236559E-2
3.147335542E0,1.407646537E-1,1.550499201E-1,4.643417895E-2
3.157345542E0,1.572576165E-1,2.419179827E-1,4.578356817E-2
3.167385542E0,1.691840887E-1,3.005478680E-1,4.074810818E-2
3.177421167E0,1.768768877E-1,3.434860110E-1,3.708679229E-2
3.187431167E0,1.806836277E-1,3.695834875E-1,3.437514231E-2
3.197441167E0,1.881439388E-1,3.862889707E-1,2.906453237E-2
3.207481167E0,1.927578151E-1,4.011496007E-1,1.892285980E-2
3.217491167E0,2.020586431E-1,4.104602933E-1,1.119117066E-2
3.227501167E0,2.098673284E-1,4.209864140E-1,-1.162480097E-3
3.237510167E0,2.116670907E-1,4.222285151E-1,-1.182311401E-2
3.247551167E0,2.159857899E-1,4.185881615E-1,-2.662045881E-2
3.257560167E0,2.159674168E-1,4.185186327E-1,-3.939537704E-2
3.267570167E0,2.029815018E-1,4.257003665E-1,-5.012731627E-2
3.277610167E0,1.879719198E-1,4.351950586E-1,-6.964215636E-2
3.287620167E0,1.675989926E-1,4.394033849E-1,-9.785686433E-2
3.297630167E0,1.372757107E-1,4.381498396E-1,-1.146371812E-1
3.307640167E0,1.019468307E-1,4.367059469E-1,-1.211553365E-1
3.317680167E0,5.771625787E-2,4.220151305E-1,-1.307618916E-1
3.327690167E0,1.062272582E-2,4.076746404E-1,-1.334068328E-1
3.337700167E0,-3.608059883E-2,3.960984349E-1,-1.340694278E-1
3.347709167E0,-8.341757208E-2,3.794086277E-1,-1.366464943E-1
3.357750167E0,-1.185973957E-1,3.566833436E-1,-1.340171546E-1
3.367759167E0,-1.416264772E-1,3.161498010E-1,-1.225086302E-1
3.377769167E0,-1.615304053E-1,2.485582381E-1,-1.075837463E-1
3.387809167E0,-1.762624681E-1,1.432473511E-1,-1.070487350E-1
3.397819167E0,-1.893495023E-1,2.398834378E-2,-8.172819763E-2
3.407829167E0,-2.016714811E-1,-1.032808125E-1,-7.102172077E-2
3.417839167E0,-1.974240094E-1,-2.200236768E-1,-5.337055773E-2
3.427879167E0,-1.740685701E-1,-3.375361264E-1,-6.112943217E-2
3.437889167E0,-1.456182748E-1,-4.335617423E-1,-7.774436474E-2
3.447899167E0,-1.080664173E-1,-4.972384274E-1,-5.423834547E-2
3.457908167E0,-6.552615017E-2,-5.534856915E-1,-4.208873957E-2
3.467949167E0,-1.724263094E-2,-6.023033261E-1,-3.650340438E-2
3.477958167E0,2.515995502E-2,-6.331225038E-1,-2.890087664E-2
