Time (s),X (m/s^2),Y (m/s^2),Z (m/s^2)
55.00776338,-0.417481842,9.54789505,0.87283493
55.01781638,-0.257763977,9.564809875,0.883313141
55.02786837,-0.125888214,9.577982483,0.894689484
55.03792038,-0.087118835,9.600286102,0.922381897
55.04797337,-0.091609497,9.643097076,0.971030731
55.05802596,-0.112116852,9.688452759,1.017134857
55.06807796,-0.212408295,9.703271942,1.059496765
55.07813096,-0.400417328,9.71285202,1.0577005
55.08818296,-0.680335236,9.752369843,1.10919342
55.09823496,-0.979113922,9.818083191,1.280736694
55.10828796,-1.231189728,9.896370392,1.447938995
55.11833996,-1.385219421,10.01282822,1.622326355
55.12839196,-1.431173859,10.18976028,1.686393127
55.13844396,-1.391656036,10.29918274,1.730401611
55.14849696,-1.294208679,10.33031799,1.781744843
55.15854896,-1.136436768,10.27433441,1.850601654
55.16860096,-0.951870575,10.22224274,1.917662201
55.17865396,-0.794847107,10.27134064,1.9681073
55.18870596,-0.721499634,10.30531998,1.921404419
55.19875796,-0.743653565,10.27538223,1.90134613
55.20881096,-0.81550415,10.15473312,1.958227844
55.21886296,-0.843945007,9.967023468,2.098037109
55.22891496,-0.874481506,9.730215912,2.262694702
55.23896796,-0.941242676,9.532028046,2.328108673
55.24901996,-1.013093262,9.408085785,2.278262329
55.25907196,-1.046174469,9.316625977,2.264341278
55.26912396,-1.088985443,9.297166443,2.321372681
55.27917696,-1.110540619,9.308991852,2.351160736
55.28922896,-1.115630035,9.319619751,2.412533112
55.29928096,-1.113534393,9.300010529,2.425106964
55.30933396,-1.072669373,9.22022644,2.397264862
55.31938596,-1.03315155,9.113648071,2.414928131
55.32943796,-0.965791626,9.006470947,2.489024048
55.33949096,-0.853674774,8.979826355,2.598895569
55.34954296,-0.744701386,9.019194489,2.702180786
55.35959496,-0.640967102,9.06350235,2.815644836
55.36964696,-0.579594727,9.114396515,2.926264801
55.37969996,-0.517024841,9.25420578,2.98015274
55.38975196,-0.456550598,9.439969482,2.930306396
55.39980396,-0.399668884,9.533075867,2.852318573
55.40985696,-0.383502502,9.519753571,2.821782074
55.41990896,-0.383502502,9.405840454,2.768941956
55.42996096,-0.345331879,9.190139008,2.605032806
55.44001396,-0.259560242,9.052874451,2.462080078
55.45006596,-0.044906616,9.033265228,2.324216766
55.46011796,0.135168915,9.061706085,2.246977386
55.47017096,0.193547516,9.093290405,2.225571899
55.48022296,0.054187317,9.108259277,2.159708862
55.49027496,-0.0597258,9.110055542,1.999541931
55.50032696,-0.392783203,9.014554138,1.993255005
55.51037996,-0.699196014,9.040150909,2.112556915
55.52043196,-0.88690567,9.12667099,2.213896179
55.53048396,-0.973874817,9.169631653,2.390828247
55.54053696,-0.911903687,9.17232605,2.692001953
55.55058896,-0.71027298,9.208251343,2.880010986
55.56064096,-0.487835541,9.269324341,2.940185852
55.57069396,-0.232017517,9.297615509,2.93225235
55.58074596,-0.035625916,9.305848389,2.944526825
55.59079796,0.179626465,9.29162796,2.862946472
55.60084996,0.324974213,9.313033447,2.720592499
55.61090296,0.397124176,9.367220764,2.598596191
55.62095496,0.475261688,9.42275528,2.506687317
55.63100696,0.56043457,9.430988159,2.480192413
55.64105996,0.680484924,9.377399597,2.52270401
55.65111196,0.845741272,9.275760956,2.500849457
55.66116396,0.969084778,9.177714844,2.419418793
55.67121696,1.044677582,9.095535736,2.401306458
55.68126896,1.073417816,9.011260986,2.451003113
55.69132096,1.070274353,8.949140167,2.451152802
55.70137396,1.014889526,8.92309433,2.354004822
55.71142596,0.869691467,9.08341095,2.25356369
55.72147796,0.696052551,9.378148041,2.233505402
55.73152996,0.584684143,9.471553802,2.298170929
55.74158296,0.596659241,9.371561737,2.46657074
55.75163496,0.729133759,9.26707901,2.545756073
55.76168696,0.772992554,9.206754456,2.543061676
55.77173996,0.597557373,9.167536011,2.426005096
55.78179196,0.315244446,9.175469513,2.196981354
55.79184396,0.026494904,9.25540329,1.972298584
55.80189696,-0.175435181,9.369166718,1.792672119
55.81194896,-0.345780945,9.482780457,1.694027252
55.82200096,-0.512085114,9.597891083,1.708547058
55.83205296,-0.606239319,9.805209961,1.853745117
55.84210596,-0.639769592,9.983938293,2.005230103
55.85215796,-0.696950684,10.06372238,2.069745941
55.86220996,-0.76056839,10.05563919,2.108964386
55.87226296,-0.727636871,9.899962921,2.112407227
55.88231496,-0.489482117,9.554331665,2.108964386
55.89236696,0.035625916,9.17576889,1.987566833
55.90241996,0.623303833,8.932674408,1.619332581
55.91247196,1.030157776,8.937464447,1.035845947
55.92252396,1.111738129,9.166937256,0.601000214
55.93257696,0.963995361,9.437724152,0.559087372
55.94262896,0.815803528,9.633666687,0.841400299
55.95268096,0.835113373,9.724228363,1.179098053
55.96273296,0.928369446,9.792037354,1.407523041
55.97278596,0.899629211,9.892927551,1.432521057
55.98283796,0.63767395,9.902507629,1.361718292
55.99288996,0.247136078,9.791737976,1.210233307
56.00294296,-0.116457825,9.673034821,1.038540344
56.01299496,-0.360151062,9.654174042,0.920136566
56.02304696,-0.463436279,9.695188751,0.854423218
56.03309996,-0.437390442,9.765093384,0.820443878
56.04315196,-0.307460632,9.825717316,0.748742981
56.05320396,-0.126786346,9.820328522,0.669407959
56.06326058,0.02335144,9.799970856,0.619711304
56.07331258,0.173938294,9.770332489,0.596659241
56.08336458,0.316591644,9.724677429,0.605041809
56.09341658,0.397273865,9.749675446,0.707728272
56.10346958,0.409847717,9.824669495,0.836909638
56.11352158,0.388591919,9.868079224,0.943637695
56.12357358,0.370479584,9.906698914,0.928369446
56.13362658,0.348475342,9.896819458,0.803678742
56.14367858,0.32527359,9.870324554,0.684227142
56.15373058,0.307610321,9.86029541,0.62016037
56.16378358,0.288749542,9.843081207,0.596210175
56.17383558,0.244741058,9.796827393,0.596210175
56.18388758,0.190404053,9.769883423,0.597407684
56.19393958,0.178129578,9.801617432,0.639619904
56.20399258,0.245788879,9.819580078,0.639919281
56.21404458,0.323776703,9.82407074,0.540975037
56.22409658,0.363593903,9.820029144,0.479303284
56.23414958,0.3556604,9.802814941,0.420176239
56.24420158,0.341589661,9.774673462,0.433199158
56.25425358,0.344583435,9.749675446,0.418529663
56.26430658,0.348175964,9.736951904,0.390986939
56.27435858,0.361797638,9.730066223,0.40835083
56.28441058,0.40490799,9.727521515,0.434396668
56.29446358,0.454305267,9.723330231,0.42586441
56.30451558,0.494421845,9.754016418,0.412841492
56.31456758,0.502505035,9.770931244,0.333656158
56.32461958,0.467178497,9.774673462,0.296982422
56.33467258,0.377215576,9.782756653,0.261655884
56.34472458,0.308059387,9.733209686,0.275277557
56.35477658,0.242944794,9.701924744,0.288749542
56.36482958,0.195493469,9.71988739,0.284408569
56.37488158,0.188458099,9.777068481,0.290695496
56.38493358,0.242944794,9.801318054,0.312999115
56.39498658,0.330662384,9.773326263,0.313298492
56.40503858,0.405955811,9.759405212,0.279319153
56.41509058,0.428109741,9.741442566,0.244291992
56.42514358,0.449515228,9.738748169,0.182171173
56.43519558,0.439037018,9.733359375,0.163609772
56.44524758,0.396525421,9.76554245,0.220641174
56.45529958,0.401016083,9.771230621,0.232616272
56.46535258,0.402962036,9.774673462,0.223784638
56.47540458,0.391436005,9.748927002,0.191601563
56.48545658,0.326770477,9.736353149,0.160466309
56.49550958,0.246687012,9.74683136,0.132923584
56.50556158,0.199085999,9.760153656,0.155975647
56.51561358,0.185913391,9.783355408,0.224533081
56.52566658,0.213156738,9.818083191,0.227676544
56.53571858,0.285905457,9.829309845,0.18950592
56.54577058,0.323926392,9.793384552,0.139060822
56.55582358,0.327069855,9.725425873,0.096399536
56.56587558,0.320184174,9.719737701,0.074395294
56.57592758,0.298628998,9.730664978,0.052391052
56.58598058,0.274828491,9.717642059,0.055085449
56.59603258,0.242046661,9.689949646,0.122145996
56.60608458,0.265248413,9.674831085,0.22468277
56.61613658,0.330363007,9.682165833,0.250129852
56.62618958,0.377065888,9.676327972,0.177381134
56.63624158,0.381556549,9.70237381,0.11466156
56.64629358,0.378263397,9.745334473,0.084574127
56.65634658,0.342338104,9.825118561,0.056432648
56.66639858,0.283660126,9.855954437,0.001796265
56.67645058,0.242346039,9.846973114,0.016316071
56.68650358,0.239352264,9.8697258,0.0398172
56.69655558,0.27033783,9.87197113,0.001347198
56.70660758,0.275427246,9.863738251,-0.034278717
56.71665958,0.274080048,9.782008209,-0.043110352
56.72671258,0.286204834,9.73859848,-0.027243347
56.73676458,0.295036469,9.771979065,-0.03038681
56.74681658,0.30776001,9.781708832,-0.03158432
56.75686958,0.313897247,9.764943695,0.00119751
56.76692158,0.315843201,9.756561127,0.014669495
56.77697358,0.302520905,9.736053772,-0.000598755
56.78702658,0.298179932,9.685309296,-0.026644592
56.79707858,0.249830475,9.656868439,-0.042960663
56.80713058,0.219593353,9.682165833,-0.058079224
56.81718358,0.250878296,9.71285202,-0.031883698
56.82723558,0.311651917,9.746681671,-0.013621674
56.83728758,0.345631256,9.807904358,0.004191284
56.84733958,0.358953552,9.850865021,0.001347198
56.85739258,0.352067871,9.859996033,-0.030985565
56.86744458,0.303568726,9.850865021,-0.018411713
56.87749658,0.247285767,9.80416214,0.03397934
56.88754958,0.252225494,9.756411438,0.060174866
56.89760158,0.282312927,9.730664978,0.037272491
56.90765358,0.293240204,9.698481903,0.053289185
56.91770658,0.254620514,9.652677155,0.053438873
56.92775858,0.245489502,9.667795715,0.033530273
56.93781058,0.257614288,9.737550659,0.008681946
56.94786258,0.270487518,9.789043579,-0.025147705
56.95791558,0.273331604,9.806706848,-0.014819183
56.96796758,0.226479034,9.81583786,-0.014669495
56.97801958,0.180674286,9.817334747,-0.032632141
56.98807258,0.136665802,9.803413696,-0.053289185
56.99812458,0.12049942,9.773026886,-0.050594788
57.00817658,0.144599304,9.76314743,-0.03742218
57.01822958,0.160017242,9.739945679,-0.039517822
57.02828158,0.148491211,9.737999725,-0.01871109
57.03833358,0.154029694,9.741592255,-0.013172607
57.04838658,0.16495697,9.76673996,-0.027093658
57.05843421,0.173489227,9.778715057,-0.006885681
57.06848621,0.175135803,9.76673996,0.001347198
57.07853821,0.195643158,9.752070465,0.004790039
57.08859121,0.241298218,9.780661011,0.006137238
57.09864321,0.293539581,9.778565369,-0.039068756
57.10869521,0.323327637,9.711355133,-0.055235138
57.11874821,0.297730866,9.672136688,-0.050445099
57.12880021,0.286204834,9.70701416,-0.023950195
57.13885221,0.288899231,9.743538208,0.01751358
57.14890521,0.289797363,9.794432373,0.031135254
57.15895721,0.299227753,9.829459534,0.029189301
57.16900921,0.338446198,9.821376343,0.047900391
57.17906221,0.349972229,9.793833618,0.040116577
57.18911421,0.322279816,9.75147171,-0.021255798
57.19916621,0.288300476,9.717941437,-0.026345215
57.20921821,0.256117401,9.712253265,0.01287323
57.21927121,0.27378067,9.722132721,0.03278183
57.22932321,0.296233978,9.740694122,0.049247589
57.23937521,0.265248413,9.75970459,0.043409729
57.24942821,0.220192108,9.774673462,0.039517822
57.25948021,0.209115143,9.796677704,0.035925293
57.26953221,0.216898956,9.816735992,0.007634125
57.27958521,0.220940552,9.803563385,-0.026045837
57.28963721,0.220940552,9.762548676,-0.037122803
57.29968921,0.231418762,9.775272217,-0.019459534
57.30974221,0.242944794,9.776170349,-0.014519806
57.31979421,0.248183899,9.777068481,-0.010927277
57.32984621,0.2574646,9.784702606,0.025297394
57.33989821,0.268541565,9.773176575,0.05613327
57.34995121,0.290396118,9.743837585,0.033081207
57.36000321,0.291443939,9.741741943,-0.034877472
57.37005521,0.243992615,9.734257507,-0.035027161
57.38010821,0.198038178,9.723180542,-0.014220428
57.39016021,0.193248138,9.723629608,-0.004340973
57.40021221,0.218695221,9.733209686,0.012424164
57.41026521,0.255818024,9.742939453,0.031284943
57.42031721,0.30895752,9.754166107,0.052391052
57.43036921,0.355810089,9.754016418,0.013771362
57.44042121,0.359851685,9.725425873,0.007783813
57.45047421,0.314945068,9.709708557,0.013322296
57.46052621,0.29249176,9.731862488,0.03397934
57.47057821,0.314496002,9.757908325,0.036524048
57.48063121,0.300275574,9.768087158,0.068707123
57.49068321,0.296383667,9.766290894,0.070802765
57.50073521,0.30776001,9.761800232,0.051043854
57.51078821,0.295335846,9.763446808,0.019609222
57.52084021,0.263452148,9.760453033,0.020657043
57.53089221,0.2468367,9.761351166,0.053738251
57.54094521,0.259560242,9.756860504,0.070802765
57.55099721,0.272433472,9.75970459,0.098195801
57.56104921,0.290096741,9.756411438,0.102686462
57.57110121,0.291294251,9.745933228,0.073946228
57.58115421,0.278421021,9.741143188,0.066012726
57.59120621,0.269290009,9.727072449,0.082478485
57.60125821,0.294437714,9.716594238,0.0889151
57.61131121,0.324225769,9.727820892,0.102836151
57.62136321,0.35685791,9.729168091,0.097746735
57.63141521,0.355510712,9.750872955,0.095351715
57.64146821,0.344733124,9.76673996,0.089214478
57.65152021,0.334554291,9.735455017,0.08547226
57.66157221,0.340392151,9.721983032,0.099542999
57.67162521,0.328267365,9.731114044,0.110170898
57.68167721,0.311502228,9.751771088,0.149988098
57.69172921,0.311053162,9.763596497,0.179177399
57.70178121,0.322878571,9.757608948,0.180674286
57.71183421,0.351618805,9.747280426,0.152233429
57.72188621,0.351618805,9.752369843,0.160166931
57.73193821,0.308508453,9.74802887,0.176183624
57.74199121,0.264799347,9.735904083,0.183518372
57.75204321,0.271685028,9.749226379,0.21525238
57.76209521,0.281414795,9.766590271,0.214354248
57.77214821,0.293988648,9.799372101,0.196391602
57.78220021,0.300425263,9.781559143,0.186811523
57.79225221,0.320932617,9.748927002,0.17079483
57.80230521,0.302221527,9.718091125,0.168848877
57.81235721,0.291593628,9.735904083,0.1977388
57.82240921,0.295186157,9.74802887,0.251477051
57.83246121,0.323627014,9.745783539,0.265996857
57.84251421,0.355959778,9.747729492,0.246986389
57.85256621,0.362246704,9.739047546,0.254321137
57.86261821,0.339044952,9.722881165,0.250578919
57.87267121,0.332009583,9.704319763,0.216000824
57.88272321,0.295485535,9.666897583,0.225281525
57.89277521,0.289797363,9.656119995,0.274080048
57.90282821,0.312999115,9.66375412,0.304766235
57.91288021,0.335452423,9.696386261,0.324824524
57.92293221,0.34278717,9.713899841,0.288749542
57.93298521,0.347277832,9.725276184,0.227526856
57.94303721,0.317340088,9.719438324,0.198187866
57.95308921,0.270936585,9.70821167,0.23635849
57.96314121,0.264799347,9.692194977,0.240849152
57.97319421,0.26090744,9.684111786,0.230370941
57.98324621,0.224383392,9.671987,0.244890747
57.99329821,0.213456116,9.68246521,0.23635849
58.00335121,0.206869812,9.712103577,0.253123627
58.01340321,0.22932312,9.736802216,0.269589386
58.02345521,0.239352264,9.757159882,0.236657867
58.03350821,0.242495728,9.759105835,0.234711914
58.04356021,0.245788879,9.746082916,0.252225494
58.05361221,0.272283783,9.728419647,0.226029968
58.06366521,0.286354523,9.698481903,0.22228775
58.07371721,0.279768219,9.690249023,0.224084015
58.08376921,0.288150787,9.695488129,0.211061096
58.09382121,0.298928375,9.71524704,0.202977905
58.10387421,0.307310944,9.754615173,0.212408295
58.11392621,0.320184174,9.756261749,0.216898956
58.12397821,0.32407608,9.75386673,0.208666077
58.13403121,0.321082306,9.761051788,0.218246155
58.14408321,0.313298492,9.774673462,0.213905182
58.15413521,0.319136353,9.764494629,0.214204559
58.16418821,0.341290283,9.755513306,0.222587128
58.17424021,0.368084564,9.763895874,0.176932068
58.18429221,0.370629273,9.743687897,0.139809265
58.19434521,0.344733124,9.728719025,0.124690704
58.20439721,0.303119659,9.734556885,0.132624207
58.21444921,0.258811798,9.751771088,0.103584595
58.22450121,0.210013275,9.761500854,0.113913117
58.23455421,0.20941452,9.739047546,0.109572144
58.24460621,0.227676544,9.723928986,0.103434906
58.25465821,0.220940552,9.717192993,0.075892181
58.26471121,0.232616272,9.748328247,0.046403503
58.27476321,0.265098724,9.754914551,0.019010468
58.28481521,0.285157013,9.753267975,0.007484436
58.29486821,0.289647675,9.741292877,0.017064514
58.30492021,0.307161255,9.759554901,0.061671753
58.31497221,0.312699738,9.774823151,0.047451324
58.32502521,0.278421021,9.770033112,0.02335144
58.33507721,0.2667453,9.767488403,0.066461792
58.34512921,0.283061371,9.762997742,0.082179108
58.35518121,0.308658142,9.7609021,0.046403503
58.36523421,0.307011566,9.774074707,0.021255798
58.37528621,0.294587402,9.77721817,0.012124786
58.38533821,0.31359787,9.74443634,0.020956421
58.39539121,0.326321411,9.727671204,0.0490979
58.40544321,0.347128143,9.733059998,0.054337006
58.41549521,0.348026276,9.759405212,0.028590546
58.42554821,0.356259155,9.761949921,0.00703537
58.43560021,0.377365265,9.75730957,-0.001646576
58.44565221,0.379460907,9.768835602,-0.010178833
58.45570521,0.374221802,9.760752411,-0.024399261
58.46575721,0.340691528,9.744136963,-0.011975098
58.47580921,0.336350555,9.762997742,-0.000299377
58.48586121,0.344733124,9.782457275,0.01526825
58.49591421,0.313897247,9.795031128,-0.004939728
58.50596621,0.318387909,9.797725525,-0.008681946
58.51601821,0.326321411,9.792336731,-0.021255798
58.52607121,0.311801605,9.754914551,-0.038470001
58.53612321,0.277073822,9.716594238,-0.028440857
58.54617521,0.270637207,9.729766846,-0.020657043
58.55622821,0.280067596,9.740544434,-0.01751358
58.56628021,0.277522888,9.735005951,0.007933502
58.57633221,0.320483551,9.758207703,0.016615448
58.58638421,0.369132385,9.760153656,-0.016316071
58.59643721,0.368234253,9.72572525,-0.029039612
58.60648921,0.338446198,9.72452774,-0.039068756
58.61654121,0.325722656,9.745783539,-0.061671753
58.62659421,0.289497986,9.755513306,-0.030985565
58.63664621,0.267643433,9.731712799,0.006137238
58.64669821,0.290545807,9.710007935,0.041763153
58.65675121,0.310604096,9.722731476,0.048199768
58.66680321,0.33694931,9.747879181,0.040116577
58.67685521,0.358953552,9.77602066,-0.006286926
58.68690821,0.36509079,9.781559143,-0.006586304
58.69696021,0.364192658,9.743837585,0.001796265
58.70701221,0.36853363,9.714348907,-0.002694397
58.71706521,0.375569,9.714498596,0.011825409
58.72711721,0.379011841,9.720037079,0.033380585
58.73716921,0.397423554,9.739945679,0.007933502
58.74722121,0.416284332,9.748777313,-0.007484436
58.75727421,0.434546356,9.752519531,0.000748444
58.76732621,0.442629547,9.755213928,0.006436615
58.77737821,0.459694061,9.754764862,0.002844086
58.78743121,0.482147369,9.768835602,-0.017663269
58.79748321,0.479452972,9.778565369,-0.027393036
58.80753521,0.460292816,9.776469727,-0.033530273
58.81758821,0.435743866,9.78305603,-0.052540741
58.82764021,0.383652191,9.755363617,-0.037721558
58.83769221,0.339793396,9.751172333,-0.057480469
58.84774421,0.268840942,9.759255524,-0.072898407
58.85779721,0.200732575,9.75266922,-0.038470001
58.86784921,0.161214752,9.751172333,-0.030985565
58.87790121,0.115410004,9.772428131,-0.022902374
58.88795421,0.067659302,9.794432373,0.012124786
58.89800621,0.057480469,9.798473969,0.025147705
58.90805821,0.089663544,9.767488403,0.000748444
58.91811121,0.119152222,9.739945679,-0.030536499
58.92816321,0.140707398,9.738149414,-0.028141479
58.93821521,0.140707398,9.728419647,-0.008532257
58.94826821,0.104333038,9.717192993,-0.016016693
58.95832021,0.101039887,9.731263733,0.01047821
58.96837221,0.121098175,9.744735718,-0.001047821
58.97842521,0.14504837,9.755513306,-0.012124786
58.98847721,0.139509888,9.746232605,0.003742218
58.99852921,0.144150238,9.732610931,0.013771362
59.00858121,0.180973663,9.729168091,0.020357666
59.01863421,0.210911408,9.736203461,0.026045837
59.02868621,0.218695221,9.75506424,0.038170624
59.03873821,0.258063355,9.77961319,0.053289185
59.04879121,0.312999115,9.782457275,0.035476227
59.05884321,0.340691528,9.764045563,0.027542725
59.06889571,0.363144836,9.749226379,0.020357666
59.07894871,0.402812347,9.726473694,0.016615448
59.08900071,0.419876862,9.713750153,0.005688171
59.09905271,0.425565033,9.709858246,0.004340973
59.10910571,0.454155579,9.739197235,-0.003442841
59.11915771,0.467777252,9.761201477,-0.021255798
59.12920971,0.456550598,9.759405212,-0.027243347
59.13926171,0.438438263,9.760453033,-0.012573853
59.14931471,0.430804138,9.748777313,-0.026494904
59.15936671,0.426163788,9.756561127,-0.032183075
59.16941871,0.456700287,9.74802887,-0.033380585
