"Time (s)","X (rad/s)","Y (rad/s)","Z (rad/s)"
1.419849996E-2,-1.227687836E0,-1.635463834E0,-2.844608016E-2
2.417250001E-2,-1.349785209E0,-1.940515995E0,-4.630231485E-2
3.414549999E-2,-1.410058498E0,-2.173912287E0,-4.705519229E-2
4.411949997E-2,-1.433928847E0,-2.362642288E0,-4.817850888E-2
5.409250001E-2,-1.496659279E0,-2.302577257E0,-6.656603515E-2
6.406650000E-2,-1.608507037E0,-2.258349180E0,-7.691003382E-2
7.403949997E-2,-1.698460340E0,-2.160065651E0,-1.043861359E-1
8.401250001E-2,-1.788666368E0,-2.130704165E0,-1.511956900E-1
9.398650000E-2,-1.889316916E0,-2.130475998E0,-2.021238506E-1
1.039595000E-1,-2.003314018E0,-2.098921537E0,-2.515116632E-1
1.139335000E-1,-2.146647930E0,-2.105650425E0,-2.900049984E-1
1.239065000E-1,-2.306850195E0,-1.996459723E0,-3.161010444E-1
1.338800000E-1,-2.453423977E0,-1.835408807E0,-3.189942837E-1
1.438530000E-1,-2.522700310E0,-1.684053540E0,-2.775682807E-1
1.538270000E-1,-2.499744177E0,-1.407339334E0,-2.190048546E-1
1.638000000E-1,-2.399801016E0,-1.276585579E0,-2.204623967E-1
1.737740000E-1,-2.186327457E0,-1.241226554E0,-2.462298274E-1
1.837470000E-1,-1.910997748E0,-1.265920877E0,-3.144288063E-1
1.937200000E-1,-1.588298559E0,-1.345486879E0,-3.930085599E-1
2.036940000E-1,-1.214160800E0,-1.370530248E0,-3.354771435E-1
2.136670000E-1,-8.433538675E-1,-1.505048156E0,-8.730779588E-2
2.236410000E-1,-6.522575021E-1,-1.853837132E0,1.594636440E-1
2.336140000E-1,-6.817064881E-1,-2.283332348E0,2.977546453E-1
2.435880000E-1,-7.406666279E-1,-2.536609411E0,4.074274004E-1
2.535610000E-1,-9.358955026E-1,-2.463792324E0,4.183087945E-1
2.635350000E-1,-8.976010084E-1,-2.186352015E0,4.409562945E-1
2.735080000E-1,-8.462845683E-1,-1.875414133E0,3.922140598E-1
2.834810000E-1,-8.281903863E-1,-1.609660745E0,3.273413181E-1
2.934550000E-1,-8.054030538E-1,-1.412192464E0,3.243119717E-1
3.034280000E-1,-7.285388112E-1,-1.219996572E0,3.813326359E-1
3.134020000E-1,-5.460872054E-1,-9.268831015E-1,4.796621501E-1
3.233750000E-1,-2.720949352E-1,-6.033073664E-1,5.658127666E-1
3.333490000E-1,1.081586909E-2,-2.283904403E-1,5.477858186E-1
3.433220000E-1,2.269693762E-1,1.865993738E-1,4.495021105E-1
3.532960000E-1,3.393350840E-1,5.869065523E-1,3.415623307E-1
3.632690000E-1,3.778404891E-1,9.597135782E-1,2.560471594E-1
3.732430000E-1,3.790189326E-1,1.293402076E0,1.780279875E-1
3.832160000E-1,3.311343193E-1,1.457575798E0,1.045106575E-1
3.931890000E-1,2.169094980E-1,1.433505893E0,5.740306526E-2
4.031630000E-1,3.831695765E-2,1.370811224E0,5.272440612E-2
4.131360000E-1,-1.835097075E-1,1.411822796E0,1.233857945E-1
4.231100000E-1,-4.213279486E-1,1.569228053E0,1.812032759E-1
4.330830000E-1,-6.784058213E-1,1.701118708E0,1.681519300E-1
4.430570000E-1,-9.310279489E-1,1.751691103E0,7.717674971E-2
4.530300000E-1,-1.115791321E0,1.776860118E0,-1.501550432E-3
4.630040000E-1,-1.197821021E0,1.819918633E0,-5.452588573E-2
4.729770000E-1,-1.217980146E0,1.851995587E0,-1.045725420E-1
4.829500000E-1,-1.191649556E0,1.798019052E0,-1.483809948E-1
4.929240000E-1,-1.124199629E0,1.649478793E0,-1.699137241E-1
5.028970000E-1,-1.041101933E0,1.466051102E0,-1.802707762E-1
5.128710000E-1,-9.300981760E-1,1.280640483E0,-2.021792680E-1
5.228440000E-1,-7.556881309E-1,1.050720334E0,-2.530384362E-1
5.328180000E-1,-5.367310047E-1,8.049055934E-1,-3.627425730E-1
5.427910000E-1,-2.761273086E-1,6.079126000E-1,-5.149640441E-1
5.527650000E-1,6.089650467E-2,7.691840529E-1,-6.563280821E-1
5.627380000E-1,3.747945130E-1,6.233225465E-1,-8.052361608E-1
5.727120000E-1,6.480033994E-1,4.628233612E-1,-8.158397675E-1
5.826850000E-1,7.963843346E-1,7.712095231E-2,-6.967509389E-1
5.926580000E-1,7.541399598E-1,-5.306289196E-1,-5.541636944E-1
6.026320000E-1,6.895446777E-1,-1.079192519E0,-3.563195765E-1
6.126050000E-1,6.664372683E-1,-1.536473513E0,-1.971780956E-1
6.225790000E-1,5.992102623E-1,-2.101058722E0,-1.669712067E-1
6.325520000E-1,4.401489198E-1,-2.558444262E0,-3.325236738E-1
6.425260000E-1,1.613066196E-1,-2.796229362E0,-6.928322911E-1
6.524990000E-1,-1.188222393E-1,-2.772408485E0,-1.099617600E0
6.624730000E-1,-3.483669162E-1,-2.552623749E0,-1.487877011E0
6.724460000E-1,-4.976242781E-1,-2.136628628E0,-1.791831851E0
6.824190000E-1,-5.340187550E-1,-1.311898947E0,-1.920047522E0
6.923930000E-1,-4.503079057E-1,-3.924934566E-1,-1.837702036E0
7.023660000E-1,-2.522164881E-1,-2.181531787E-1,-1.602838159E0
7.123400000E-1,-8.682059497E-2,-6.007722020E-1,-1.277095795E0
7.223130000E-1,9.246801585E-2,-1.105748415E0,-8.610428572E-1
7.322870000E-1,2.804022133E-1,-1.433360815E0,-4.030458033E-1
7.422600000E-1,4.557106495E-1,-1.680613518E0,2.754128724E-2
7.522340000E-1,5.725821257E-1,-2.113209009E0,3.625605404E-1
7.622070000E-1,6.276233196E-1,-2.718304157E0,5.821299553E-1
7.721800000E-1,6.502535343E-1,-3.296657085E0,7.654870152E-1
7.821540000E-1,6.482554674E-1,-3.774820089E0,1.176447153E0
7.921270000E-1,8.001174331E-1,-4.338096619E0,1.736724019E0
8.021010000E-1,1.063635111E0,-4.412454128E0,1.910518408E0
8.120740000E-1,1.128626823E0,-4.030704021E0,1.715575814E0
8.220480000E-1,1.163710833E0,-3.837062359E0,1.557720900E0
8.320210000E-1,1.190032244E0,-3.745029449E0,1.584426880E0
8.419950000E-1,1.181382895E0,-3.723101616E0,1.754101872E0
8.519680000E-1,1.120594025E0,-3.709609509E0,2.043319464E0
8.619420000E-1,1.011052012E0,-3.771780491E0,2.417006016E0
8.719150000E-1,9.734666944E-1,-4.083173752E0,2.674728632E0
8.818880000E-1,1.132804155E0,-4.448464870E0,2.758216619E0
8.918620000E-1,1.475794077E0,-4.595950127E0,2.794098854E0
9.018350000E-1,1.861472964E0,-4.486291885E0,2.805069685E0
9.118090000E-1,2.158103704E0,-4.183131218E0,2.761865616E0
9.217820000E-1,2.300037146E0,-3.863558769E0,2.714222193E0
9.317560000E-1,2.314336777E0,-3.627125263E0,2.834584713E0
9.417290000E-1,2.248624802E0,-3.407633066E0,3.146482229E0
9.517030000E-1,2.068923950E0,-3.081822872E0,3.458529949E0
9.616760000E-1,1.807948709E0,-2.790709734E0,3.620857000E0
9.716500000E-1,1.593600035E0,-2.694472790E0,3.634539843E0
9.816230000E-1,1.544496417E0,-2.742139578E0,3.558088303E0
9.915960000E-1,1.687870383E0,-2.811202288E0,3.438799858E0
1.001570000E0,1.950580597E0,-2.857147217E0,3.332434893E0
1.011543000E0,2.238467455E0,-2.904152632E0,3.239729643E0
1.021517000E0,2.512830496E0,-2.929300308E0,3.194981813E0
1.031490000E0,2.718575954E0,-2.887549400E0,3.255380630E0
1.041464000E0,2.829830408E0,-2.762307167E0,3.349353313E0
1.051437000E0,2.796010971E0,-2.546639204E0,3.453075171E0
1.061411000E0,2.594965696E0,-2.310529470E0,3.585270882E0
1.071384000E0,2.312715054E0,-2.120539665E0,3.706923008E0
1.081357000E0,2.048853874E0,-2.059812546E0,3.769947767E0
1.091331000E0,1.907791734E0,-2.192739487E0,3.788137913E0
1.101304000E0,1.915879369E0,-2.435752153E0,3.776826143E0
1.111278000E0,2.045483112E0,-2.777141571E0,3.763877869E0
1.121251000E0,2.225247622E0,-3.093183279E0,3.758842945E0
1.131225333E0,2.404476166E0,-3.302233219E0,3.729649544E0
1.141198333E0,2.547429800E0,-3.388038397E0,3.674796820E0
1.151172333E0,2.585723639E0,-3.369863510E0,3.620060205E0
1.161145333E0,2.507759571E0,-3.273341894E0,3.530794859E0
1.171118333E0,2.330718279E0,-3.093222380E0,3.468488216E0
1.181092333E0,2.152061224E0,-2.912950516E0,3.531545877E0
1.191065333E0,2.038106918E0,-2.708029747E0,3.696393967E0
1.201039333E0,1.971711874E0,-2.516447544E0,3.890159369E0
1.211012333E0,1.903341651E0,-2.426952600E0,4.070164680E0
1.220986333E0,1.774196148E0,-2.506219625E0,4.101763248E0
1.230959333E0,1.600761056E0,-2.766523600E0,3.966052771E0
1.240933333E0,1.236158729E0,-3.326330423E0,3.577276468E0
1.250906333E0,7.770670652E-1,-3.707349300E0,3.089183569E0
1.260880333E0,6.186788678E-1,-3.280411720E0,2.514742613E0
1.270853333E0,6.886789799E-1,-2.484725237E0,2.194607973E0
1.280826333E0,7.128178477E-1,-1.658097148E0,2.227666855E0
1.290800333E0,4.584460557E-1,-8.444769382E-1,2.150466681E0
1.300773333E0,-8.070063591E-2,-1.571639478E-1,1.873834133E0
1.310747333E0,-5.701451302E-1,5.288495421E-1,1.751284599E0
1.320720333E0,-9.049848318E-1,9.686350226E-1,1.753787994E0
1.330694333E0,-1.054949164E0,9.640344381E-1,1.713502526E0
1.340667333E0,-7.910873890E-1,4.998636246E-1,1.671768665E0
1.350641333E0,1.719478965E-1,-6.913392544E-1,1.594440579E0
1.360614333E0,2.040494829E-1,-1.258058310E0,1.749071479E0
1.370587333E0,2.424759716E-1,-1.504872561E0,1.740288377E0
1.380561333E0,2.498994619E-1,-1.506486416E0,1.832611918E0
1.390534333E0,1.218677387E-1,-1.340706706E0,1.865150928E0
1.400508333E0,-1.336641423E-2,-1.030293465E0,1.741558671E0
1.410481333E0,-1.719304919E-1,-5.968070626E-1,1.559659481E0
1.420455333E0,-3.867377937E-1,-8.276641369E-2,1.389495492E0
1.430428333E0,-6.091879010E-1,4.025371373E-1,1.288221359E0
1.440402333E0,-7.267380357E-1,6.651231050E-1,1.248275995E0
1.450375333E0,-6.609568596E-1,6.220265031E-1,1.227732182E0
1.460348333E0,-2.403312922E-1,2.207117677E-1,1.210126281E0
1.470322333E0,3.126533329E-1,-3.064191639E-1,1.257638335E0
1.480295333E0,3.427146077E-1,-4.819006324E-1,1.331500053E0
1.490269333E0,3.879094496E-2,-2.720797360E-1,1.480040550E0
1.500242333E0,-1.329596341E-1,-3.019100800E-2,1.479843259E0
1.510216333E0,-1.377160400E-1,1.360685378E-1,1.351526737E0
1.520189333E0,-1.813659072E-1,2.461026460E-1,1.153319716E0
1.530163333E0,-2.642472088E-1,3.157136738E-1,9.517074823E-1
1.540136333E0,-2.414017320E-1,3.058125079E-1,7.529776096E-1
1.550110333E0,-1.316536516E-1,3.733736649E-2,6.215058565E-1
1.560083333E0,9.364685416E-2,-3.463825285E-1,4.793987572E-1
1.570056333E0,3.643682972E-2,-2.184866220E-1,2.244679481E-1
1.580030333E0,-8.011474274E-3,2.416242957E-1,1.625489146E-1
1.590003333E0,-4.385735467E-2,3.659409285E-1,-6.428156793E-2
1.599977333E0,-1.569240093E-1,3.205451369E-1,-2.099958714E-3
1.609950333E0,1.463879347E-1,-6.072203815E-2,-4.084682465E-2
1.619924333E0,3.805841208E-1,-1.125962883E-1,-3.027513921E-1
1.629897333E0,1.281329691E-1,-1.873802543E-1,-2.459829152E-1
1.639871333E0,-6.007652283E-1,-3.553364277E-1,5.181919932E-1
1.649844333E0,-1.273478150E0,-5.113151073E-1,9.598159790E-1
1.659817333E0,-1.762406707E0,-8.817817569E-1,1.247727156E0
1.669791333E0,-2.227124214E0,-1.234458804E0,1.746093273E0
1.679764333E0,-2.741901398E0,-1.706528187E0,2.250787020E0
1.689738333E0,-3.110505104E0,-2.266661644E0,2.736759424E0
1.699711333E0,-3.176262379E0,-2.391304255E0,3.001621485E0
1.709685333E0,-2.625784636E0,-7.720396519E-1,2.786663055E0
1.719658333E0,-1.256335497E0,8.677130193E-2,2.164505005E0
1.729632333E0,4.714129567E-1,1.168375909E-1,1.464850664E0
1.739605333E0,1.742463708E0,9.201969206E-2,9.372798204E-1
1.749578333E0,2.185957432E0,-3.990771249E-2,6.704376936E-1
1.759552333E0,1.973992705E0,-1.607812047E-1,5.217882991E-1
1.769525333E0,1.489408612E0,8.187990636E-2,4.788560271E-1
1.779499333E0,1.002719164E0,2.058449984E-1,5.517193079E-1
1.789472333E0,6.415596008E-1,1.696695760E-2,7.724005580E-1
1.799446333E0,3.787887692E-1,-3.206771016E-1,1.067305923E0
1.809419333E0,1.939358264E-1,-5.244730711E-1,1.286858320E0
1.819393333E0,9.552586079E-2,-5.516936183E-1,1.402440786E0
1.829366333E0,1.252800226E-1,-4.285653532E-1,1.410740018E0
1.839340333E0,2.879376411E-1,-2.268191725E-1,1.354213953E0
1.849313333E0,5.136660933E-1,-9.573225677E-2,1.259521484E0
1.859286333E0,7.415360808E-1,-5.562966317E-2,1.237480044E0
1.869260333E0,8.724836707E-1,-4.106163979E-2,1.319172859E0
1.879233333E0,8.582360744E-1,-6.039868295E-2,1.516418219E0
1.889207333E0,6.330370307E-1,-1.393166780E-1,1.822394967E0
1.899180333E0,3.464573622E-1,-1.445543170E-1,2.123186350E0
1.909154333E0,1.708772779E-1,-3.861759901E-1,2.344322920E0
1.919127333E0,1.234305575E-1,-4.237672389E-1,2.466221809E0
1.929101333E0,1.112780198E-1,-3.470527530E-1,2.507995844E0
1.939074333E0,4.302015528E-2,-2.337370664E-1,2.439903021E0
1.949047333E0,-5.540015548E-2,-6.819203496E-2,2.223093987E0
1.959021333E0,-1.496032625E-1,2.660135180E-2,1.779458404E0
1.968994333E0,-2.978241742E-1,4.190627113E-2,9.071306586E-1
1.978968333E0,-1.103071570E0,3.863276541E-1,4.524912238E-1
1.988941333E0,-1.568481088E0,2.203051001E-1,-1.816154122E-1
1.998915333E0,-1.411425591E0,3.626626451E-3,-9.169604778E-1
2.008888333E0,-9.801132679E-1,2.240109146E-1,-9.133087397E-1
2.018862333E0,-4.581421912E-1,2.134904414E-1,-1.510859728E-1
2.028835333E0,-6.111574918E-2,1.038339809E-1,3.335579634E-1
2.038808333E0,1.640791744E-1,2.210018784E-2,2.387941480E-1
2.048782333E0,2.436091453E-1,-3.968781233E-2,2.311301082E-1
2.058755333E0,1.311378926E-1,3.331088275E-2,3.597927392E-1
2.068729333E0,7.772340626E-2,1.032710597E-1,2.394993454E-1
2.078702333E0,5.202349275E-2,7.724163681E-2,1.355159581E-1
2.088676333E0,4.481617734E-2,-1.433807891E-2,7.018595189E-2
2.098649333E0,8.682416379E-2,-9.238203615E-2,3.380799666E-2
2.108623333E0,1.432568133E-1,-1.164966971E-1,2.585180290E-2
2.118596333E0,1.684415787E-1,-8.690826595E-2,3.111843206E-2
2.128569958E0,1.431423426E-1,-7.497890294E-2,4.225417227E-2
2.138542958E0,1.274872273E-1,-1.256245524E-1,5.941187590E-2
2.148515958E0,1.667536795E-1,-2.416512817E-1,1.042808145E-1
2.158489958E0,1.660612673E-1,-6.197319627E-1,1.659058481E-1
2.168462958E0,1.236275285E-1,-1.242818594E0,2.181823701E-1
2.178436958E0,2.479724288E-1,-8.928250074E-1,1.880715787E-1
2.188409958E0,3.724536300E-1,-3.511644602E-1,1.661228836E-1
2.198383958E0,3.267435730E-1,2.618643045E-1,7.702173293E-2
2.208356958E0,1.464161426E-1,7.566383481E-1,-1.766455919E-2
2.218330958E0,1.085947752E-1,8.753028512E-1,-6.263495237E-2
2.228303958E0,1.203425080E-1,9.300670028E-1,-9.184982628E-2
2.238277958E0,1.364786327E-1,6.558683515E-1,-5.566944182E-2
2.248250958E0,1.796870828E-1,3.523275852E-1,1.246274076E-2
2.258223958E0,1.053533927E-1,3.485908210E-1,4.458711296E-2
2.268197958E0,7.252993435E-2,3.795282245E-1,4.368083924E-2
2.278170958E0,1.001688167E-1,4.014165103E-1,3.899288177E-2
2.288144958E0,1.341904253E-1,4.369899631E-1,3.976386786E-2
2.298117958E0,1.590785384E-1,4.993718266E-1,3.352783620E-2
2.308091958E0,1.664152890E-1,5.332621932E-1,2.104772814E-2
2.318064958E0,1.555815786E-1,5.529457331E-1,8.556719869E-3
2.328038958E0,1.378630400E-1,5.629504323E-1,1.109190285E-3
2.338011958E0,1.231414229E-1,5.622190833E-1,3.956606146E-3
2.347984958E0,1.187549308E-1,5.707989931E-1,1.753819548E-2
2.357958958E0,1.134601757E-1,5.457097888E-1,2.719241381E-2
2.367931958E0,1.001142785E-1,4.844107628E-1,2.834476344E-2
2.377905958E0,9.723819792E-2,4.912148714E-1,1.979604922E-2
2.387878958E0,1.048955843E-1,5.811569691E-1,4.838671535E-3
2.397852958E0,1.044766605E-1,6.231780052E-1,-1.169399358E-2
2.407825958E0,1.060322151E-1,6.325459480E-1,-1.744801924E-2
2.417799958E0,1.054704413E-1,6.595466137E-1,-3.548693843E-3
2.427772958E0,1.142231897E-1,6.771895289E-1,6.817926653E-3
2.437745958E0,1.236215085E-1,7.012079358E-1,1.316475961E-2
2.447719958E0,1.271518022E-1,7.166188359E-1,3.734240308E-3
2.457692958E0,1.224914417E-1,7.129700780E-1,-1.253553387E-2
2.467666958E0,1.223423034E-1,7.183659077E-1,-1.082418673E-2
2.477639958E0,1.173828766E-1,6.978870630E-1,-1.318113226E-2
2.487613958E0,1.147623211E-1,7.112020850E-1,-1.209536102E-2
2.497586958E0,1.261890680E-1,6.847536564E-1,-9.110469371E-3
2.507560958E0,1.113033295E-1,7.216757536E-1,-1.698224060E-2
2.517533958E0,1.008553952E-1,6.914076805E-1,-1.076614857E-2
2.527507958E0,1.008279696E-1,6.503419876E-1,-4.198793322E-3
2.537480958E0,1.011453941E-1,6.368147135E-1,1.560818637E-3
2.547453958E0,9.140488505E-2,6.423021555E-1,-2.590782940E-3
2.557427958E0,8.957654238E-2,6.033647656E-1,-9.990204126E-4
2.567400958E0,8.365154266E-2,5.950202346E-1,-6.492589135E-3
2.577374958E0,7.261599600E-2,5.785142779E-1,-1.720355451E-2
2.587347958E0,6.789740920E-2,5.583088994E-1,-2.421299368E-2
2.597321958E0,7.144854218E-2,5.496234894E-1,-3.274839744E-2
2.607294958E0,8.045295626E-2,5.074355602E-1,-3.036353737E-2
2.617268958E0,8.679151535E-2,4.695852101E-1,-3.368315846E-2
2.627241958E0,9.586783499E-2,4.313960373E-1,-3.587254137E-2
2.637214958E0,9.654232115E-2,3.956968188E-1,-3.931098059E-2
2.647188958E0,9.663180262E-2,3.762730658E-1,-4.570496455E-2
2.657161958E0,1.008066759E-1,3.500780761E-1,-4.942938313E-2
2.667135958E0,9.819411486E-2,3.253493011E-1,-5.860370770E-2
2.677108958E0,9.713457525E-2,2.934685051E-1,-5.568648875E-2
2.687082958E0,9.101223201E-2,2.852444053E-1,-5.738292262E-2
2.697055958E0,6.978587806E-2,3.144874871E-1,-6.545629352E-2
2.707029958E0,5.894254893E-2,3.286139667E-1,-6.816286594E-2
2.717002958E0,5.585967377E-2,3.585441709E-1,-7.326655090E-2
2.726975958E0,5.267187208E-2,3.874801993E-1,-7.081697136E-2
2.736949958E0,6.140401587E-2,4.153600037E-1,-6.629730016E-2
2.746922958E0,6.513883919E-2,4.493176937E-1,-5.115749687E-2
2.756896958E0,5.978066474E-2,4.906939864E-1,-3.631305322E-2
2.766869958E0,5.161168426E-2,5.489224195E-1,-2.306409180E-2
2.776843958E0,5.377417058E-2,5.970918536E-1,-9.537366219E-3
2.786816958E0,5.786238983E-2,6.335135102E-1,-3.520219587E-3
2.796790958E0,7.256139815E-2,6.543713808E-1,-1.052530948E-3
2.806763958E0,9.804518521E-2,6.266098022E-1,1.536053047E-2
2.816737958E0,1.248864532E-1,6.146489382E-1,2.608505078E-2
2.826710958E0,1.615065187E-1,5.809695721E-1,4.187146947E-2
2.836683958E0,1.952420771E-1,5.333573222E-1,5.153610557E-2
2.846657958E0,2.153065950E-1,4.985939860E-1,5.405412614E-2
2.856630958E0,2.214214504E-1,4.712310135E-1,6.527111679E-2
2.866604958E0,2.179137915E-1,4.407692552E-1,7.557329535E-2
2.876577958E0,2.168279141E-1,4.031619132E-1,8.382379264E-2
2.886551958E0,2.237177789E-1,3.696116805E-1,8.485949785E-2
2.896524958E0,2.302027792E-1,3.446926773E-1,7.712534070E-2
2.906498958E0,2.246407717E-1,3.282495141E-1,6.195197627E-2
2.916471958E0,2.051684707E-1,3.159868419E-1,4.415594786E-2
2.926444958E0,1.772609353E-1,3.130650818E-1,3.027235903E-2
2.936418958E0,1.432752311E-1,3.040812016E-1,2.541022934E-2
2.946391958E0,1.046237051E-1,3.036625683E-1,2.346052788E-2
2.956365958E0,6.639827043E-2,3.166179955E-1,2.184797823E-2
2.966338958E0,3.820258752E-2,3.362548053E-1,1.236712467E-2
2.976312958E0,2.680751681E-2,3.399377167E-1,-1.165193040E-3
2.986285958E0,2.183885686E-2,3.335591853E-1,-1.164313406E-2
2.996259958E0,1.076595206E-2,3.364748657E-1,-2.580605261E-2
3.006232958E0,-6.665768567E-3,3.437343836E-1,-3.142265975E-2
3.016206958E0,-2.847329900E-2,3.537883461E-1,-3.827900067E-2
3.026179958E0,-4.373081401E-2,3.632159233E-1,-4.088570178E-2
3.036152958E0,-4.977304116E-2,3.740858436E-1,-3.955782577E-2
3.046126958E0,-4.113854095E-2,3.882221580E-1,-2.833233587E-2
3.056099958E0,-2.197915688E-2,3.956715167E-1,-1.866829023E-2
3.066073958E0,5.557929166E-3,4.031017423E-1,1.870806562E-3
3.076046958E0,3.011775762E-2,3.995833397E-1,2.017393336E-2
3.086020958E0,4.380400851E-2,3.968786597E-1,3.788208961E-2
3.095993958E0,5.481151491E-2,3.961783946E-1,5.477504060E-2
3.105967958E0,6.463032216E-2,3.932539523E-1,6.335680932E-2
3.115940958E0,6.493499130E-2,3.832013309E-1,6.897794455E-2
3.125913958E0,6.869696826E-2,3.723747730E-1,6.720241904E-2
3.135888458E0,6.775683165E-2,3.640875816E-1,6.753291935E-2
3.145861458E0,6.065125391E-2,3.563654721E-1,6.607910246E-2
3.155835458E0,5.398781598E-2,3.577722013E-1,6.826928258E-2
3.165808458E0,3.917691112E-2,3.791778982E-1,7.228799164E-2
3.175782458E0,2.930597216E-2,4.069875479E-1,7.515407354E-2
3.185755458E0,2.982768416E-2,4.425668716E-1,7.593251765E-2
3.195729458E0,2.732335031E-2,4.770209491E-1,7.108982652E-2
3.205702458E0,2.862696722E-2,5.017330050E-1,6.519944221E-2
3.215675458E0,2.778393403E-2,5.232316256E-1,6.189632788E-2
3.225649458E0,2.273404785E-2,5.447454453E-1,5.499261618E-2
3.235622458E0,3.646376729E-2,5.220921040E-1,4.032286257E-2
3.245596458E0,7.845622301E-2,4.743837118E-1,3.115892597E-2
3.255569458E0,9.623188525E-2,4.346135259E-1,2.834288776E-2
3.265543458E0,7.692956179E-2,3.973223567E-1,3.388332948E-2
3.275516458E0,5.420120060E-2,3.583201468E-1,4.530935735E-2
3.285490458E0,4.161030799E-2,3.373911679E-1,5.088495463E-2
3.295463458E0,2.831623331E-2,3.451717496E-1,4.546597227E-2
3.305437458E0,2.127510309E-2,3.455131650E-1,3.558324650E-2
3.315410458E0,1.244359650E-2,3.457006216E-1,2.497957461E-2
3.325383458E0,-5.302112550E-5,3.434614241E-1,1.308909338E-2
3.335357458E0,-7.095202338E-3,3.362013698E-1,2.425285988E-3
3.345330458E0,-1.260554790E-2,3.222474754E-1,-3.862170968E-3
