"Time (s)","Acceleration x (m/s^2)","Acceleration y (m/s^2)","Acceleration z (m/s^2)"
2.002635600E-2,-2.873042107E0,5.696105003E0,7.295432091E0
2.202635600E-2,-3.035847664E0,5.724835396E0,7.046434879E0
2.402635600E-2,-3.165134668E0,5.746383190E0,6.845322132E0
2.602635600E-2,-3.268085241E0,5.763142586E0,6.684910297E0
2.802635600E-2,-3.344699860E0,5.885247231E0,6.335357189E0
3.002635600E-2,-3.397372246E0,5.981015205E0,6.079177380E0
3.202635600E-2,-3.430891037E0,6.052841187E0,5.925948620E0
3.402635600E-2,-3.454833031E0,6.098330975E0,5.856516838E0
3.602623100E-2,-3.471592426E0,6.131849766E0,5.822998047E0
3.802611900E-2,-3.476380825E0,6.146214962E0,5.844545841E0
4.002601900E-2,-3.466804028E0,6.136638165E0,5.942708015E0
4.202356400E-2,-3.454833031E0,6.124667168E0,6.040870190E0
4.402364700E-2,-3.445256233E0,6.115090370E0,6.119878769E0
4.602357000E-2,-3.426102638E0,6.103119373E0,6.215646744E0
4.802349800E-2,-3.404554844E0,6.088754177E0,6.306626320E0
5.002343100E-2,-3.373430252E0,6.071994781E0,6.402394772E0
5.202343100E-2,-3.335123062E0,6.055235386E0,6.502951145E0
5.402343100E-2,-3.296815634E0,6.038475990E0,6.591536522E0
5.602343100E-2,-3.253720045E0,6.016928196E0,6.677727699E0
5.802343100E-2,-3.201047659E0,5.990592003E0,6.766313076E0
6.002343100E-2,-3.150769472E0,5.966650009E0,6.845322132E0
6.202343100E-2,-3.100491285E0,5.940313816E0,6.926724911E0
6.402343100E-2,-3.050212860E0,5.909189224E0,7.008127689E0
6.602343100E-2,-3.007117271E0,5.880458832E0,7.082347870E0
6.802338900E-2,-2.961627483E0,5.849334240E0,7.156568050E0
7.002334900E-2,-2.911349297E0,5.815814972E0,7.235576630E0
7.202331000E-2,-2.865859509E0,5.784690380E0,7.309797287E0
7.402327200E-2,-2.820369720E0,5.758354187E0,7.388805866E0
7.602323600E-2,-2.777273893E0,5.732017994E0,7.470208645E0
7.802320100E-2,-2.736572504E0,5.710470200E0,7.544428825E0
8.002316700E-2,-2.688688517E0,5.684134007E0,7.647379398E0
8.202226700E-2,-2.650381327E0,5.662586212E0,7.731176376E0
8.402133300E-2,-2.619256735E0,5.645826817E0,7.798214436E0
8.602129900E-2,-2.585737944E0,5.631461620E0,7.862857819E0
8.802126500E-2,-2.552218914E0,5.621884823E0,7.927501202E0
9.002123100E-2,-2.521094322E0,5.612308025E0,7.987356186E0
9.202119700E-2,-2.494758129E0,5.602731228E0,8.044816971E0
9.402116300E-2,-2.475604534E0,5.602731228E0,8.102277756E0
9.602116300E-2,-2.458845139E0,5.605125427E0,8.152556419E0
9.802119600E-2,-2.446874142E0,5.605125427E0,8.200440407E0
1.000212290E-1,-2.439691544E0,5.602731228E0,8.241141319E0
1.020221290E-1,-2.437297344E0,5.605125427E0,8.272266388E0
1.040220950E-1,-2.437297344E0,5.609913826E0,8.298602104E0
1.060221280E-1,-2.442085743E0,5.612308025E0,8.322544098E0
1.080221610E-1,-2.451662540E0,5.612308025E0,8.339303970E0
1.100221940E-1,-2.466027737E0,5.612308025E0,8.351274490E0
1.120221940E-1,-2.485181332E0,5.614702225E0,8.360851288E0
1.140221600E-1,-2.506729126E0,5.617096424E0,8.365639687E0
1.160221260E-1,-2.523488522E0,5.617096424E0,8.365639687E0
1.180220920E-1,-2.540247917E0,5.619490623E0,8.358457565E0
1.200220580E-1,-2.557007313E0,5.631461620E0,8.336909294E0
1.220211580E-1,-2.573766708E0,5.643432617E0,8.315361977E0
1.240204240E-1,-2.585737944E0,5.653009415E0,8.298602104E0
1.260203900E-1,-2.602497339E0,5.664980412E0,8.272266388E0
1.280203900E-1,-2.616862535E0,5.676951408E0,8.241141319E0
1.300204230E-1,-2.628833532E0,5.688922405E0,8.198045731E0
1.320204560E-1,-2.645592928E0,5.705681801E0,8.147768021E0
1.340204890E-1,-2.662352324E0,5.722441196E0,8.099884033E0
1.360205220E-1,-2.679111719E0,5.736806393E0,8.047211647E0
1.380205550E-1,-2.693476915E0,5.753565788E0,7.994538784E0
1.400205880E-1,-2.705447912E0,5.770325184E0,7.944260597E0
1.420214880E-1,-2.717418909E0,5.791872978E0,7.889194012E0
1.440224210E-1,-2.729389906E0,5.813420773E0,7.834127426E0
1.460224210E-1,-2.738966703E0,5.832574844E0,7.783848763E0
1.480224210E-1,-2.748543501E0,5.851728439E0,7.733570576E0
1.500224210E-1,-2.755726099E0,5.866093636E0,7.683292389E0
1.520224210E-1,-2.762908697E0,5.875670433E0,7.635408401E0
1.540224210E-1,-2.767697096E0,5.885247231E0,7.592312813E0
1.560224210E-1,-2.770091295E0,5.897218227E0,7.549217224E0
1.580223870E-1,-2.774879694E0,5.909189224E0,7.510910034E0
1.600223530E-1,-2.772485495E0,5.928342819E0,7.465420246E0
1.620214530E-1,-2.770091295E0,5.942708015E0,7.427113056E0
1.640205190E-1,-2.770091295E0,5.954679012E0,7.398382664E0
1.660204850E-1,-2.767697096E0,5.973832607E0,7.364863873E0
1.680204510E-1,-2.762908697E0,5.995380402E0,7.328950882E0
1.700204170E-1,-2.762908697E0,6.012139797E0,7.300220490E0
1.720203830E-1,-2.762908697E0,6.028899193E0,7.271489620E0
1.740203830E-1,-2.765302896E0,6.043264389E0,7.237970829E0
1.760204160E-1,-2.770091295E0,6.057629585E0,7.206846237E0
1.780204490E-1,-2.774879694E0,6.074388981E0,7.175721645E0
1.800204820E-1,-2.784456491E0,6.088754177E0,7.146991253E0
1.820213820E-1,-2.794033289E0,6.098330975E0,7.123049259E0
1.840221150E-1,-2.801215887E0,6.107907772E0,7.106289864E0
1.860221480E-1,-2.813186884E0,6.117484570E0,7.096713066E0
1.880221810E-1,-2.822763920E0,6.127061367E0,7.089530468E0
1.900221810E-1,-2.832340717E0,6.136638165E0,7.089530468E0
1.920221470E-1,-2.844311714E0,6.148609161E0,7.091924667E0
1.940221130E-1,-2.856282711E0,6.160580158E0,7.094318867E0
1.960220790E-1,-2.868253708E0,6.177339554E0,7.099107265E0
1.980220450E-1,-2.887407303E0,6.194098949E0,7.106289864E0
2.000220110E-1,-2.925714493E0,6.225223541E0,7.118260860E0
2.020211110E-1,-2.956839085E0,6.251559734E0,7.127837658E0
2.040201770E-1,-2.985569477E0,6.275501728E0,7.137414455E0
2.060201770E-1,-3.014299870E0,6.297049522E0,7.144597054E0
2.080201770E-1,-3.045424461E0,6.320991993E0,7.154173851E0
2.100201770E-1,-3.074155092E0,6.344933987E0,7.163750648E0
2.120201770E-1,-3.098097086E0,6.364087582E0,7.173327446E0
2.140201770E-1,-3.122039080E0,6.385635376E0,7.187692642E0
2.160201770E-1,-3.141192675E0,6.407183170E0,7.202057838E0
2.180201770E-1,-3.153163671E0,6.428730965E0,7.216423035E0
2.200201770E-1,-3.160346270E0,6.450278759E0,7.230788231E0
2.220210430E-1,-3.160346270E0,6.471826553E0,7.242759228E0
2.240218430E-1,-3.155557871E0,6.488585949E0,7.254730225E0
2.260218760E-1,-3.145981073E0,6.507739544E0,7.266701221E0
2.280219090E-1,-3.126827478E0,6.522104740E0,7.273883820E0
2.300219420E-1,-3.100491285E0,6.534075737E0,7.278672218E0
2.320219750E-1,-3.076549292E0,6.546046734E0,7.281066418E0
2.340220080E-1,-3.055001259E0,6.555623531E0,7.283460617E0
2.360220080E-1,-3.031059265E0,6.565200329E0,7.285854816E0
2.380220080E-1,-3.009511471E0,6.572382927E0,7.288249016E0
2.400219740E-1,-2.992752075E0,6.579565525E0,7.293037415E0
2.420210740E-1,-2.978386879E0,6.584353924E0,7.295432091E0
2.440203400E-1,-2.966415882E0,6.589142323E0,7.297826290E0
2.460203060E-1,-2.973598480E0,6.589142323E0,7.297826290E0
2.480202720E-1,-2.990357876E0,6.586748123E0,7.297826290E0
2.500202380E-1,-3.007117271E0,6.581959724E0,7.297826290E0
2.520202380E-1,-3.031059265E0,6.577171326E0,7.300220490E0
2.540202380E-1,-3.062183857E0,6.565200329E0,7.309797287E0
2.560202710E-1,-3.088520288E0,6.553229332E0,7.319374084E0
2.580203040E-1,-3.114856482E0,6.543652534E0,7.336133480E0
2.600203370E-1,-3.141192675E0,6.538864136E0,7.360075474E0
2.620212370E-1,-3.167528868E0,6.536469936E0,7.386411667E0
2.640221700E-1,-3.201047659E0,6.536469936E0,7.417536259E0
2.660222030E-1,-3.234566450E0,6.538864136E0,7.453449249E0
2.680222360E-1,-3.265691042E0,6.541258335E0,7.489362240E0
2.700222360E-1,-3.294421434E0,6.548440933E0,7.532457829E0
2.720222360E-1,-3.318363667E0,6.555623531E0,7.585130215E0
2.740222360E-1,-3.339911461E0,6.562806129E0,7.637802601E0
2.760222360E-1,-3.351882458E0,6.574777126E0,7.697657585E0
2.780222360E-1,-3.356670856E0,6.586748123E0,7.762300968E0
2.800222360E-1,-3.344699860E0,6.603507519E0,7.841310024E0
2.820213690E-1,-3.335123062E0,6.615478516E0,7.905953407E0
2.840205690E-1,-3.327940464E0,6.625055313E0,7.963414192E0
2.860205350E-1,-3.323152065E0,6.634632111E0,8.013691902E0
2.880205010E-1,-3.323152065E0,6.644208908E0,8.066365242E0
2.900214010E-1,-3.325546265E0,6.646603107E0,8.114249229E0
2.920213670E-1,-3.327940464E0,6.646603107E0,8.157344818E0
2.940213330E-1,-3.330334663E0,6.639420509E0,8.198045731E0
2.960212990E-1,-3.323152065E0,6.629843712E0,8.245929718E0
2.980212650E-1,-3.311181068E0,6.622661114E0,8.291419983E0
3.000212650E-1,-3.287238836E0,6.617872715E0,8.341697693E0
3.020221650E-1,-3.248931646E0,6.620266914E0,8.396764755E0
3.040228980E-1,-3.208230257E0,6.625055313E0,8.449437141E0
3.060229310E-1,-3.160346270E0,6.634632111E0,8.506897926E0
3.080229640E-1,-3.105279684E0,6.646603107E0,8.564358711E0
3.100229970E-1,-3.055001259E0,6.658574104E0,8.614637375E0
3.120230300E-1,-3.007117271E0,6.670545101E0,8.662521362E0
3.140230630E-1,-2.956839085E0,6.682516098E0,8.698433876E0
3.160230630E-1,-2.911349297E0,6.694487095E0,8.724770546E0
3.180230290E-1,-2.861071110E0,6.716034889E0,8.743924141E0
3.200229950E-1,-2.779668093E0,6.744765282E0,8.739135742E0
3.220220950E-1,-2.715024710E0,6.766313076E0,8.734347343E0
3.240213280E-1,-2.662352324E0,6.785466671E0,8.729558945E0
3.260212940E-1,-2.602497339E0,6.807014942E0,8.719982147E0
3.280212600E-1,-2.545036316E0,6.826168537E0,8.705616951E0
3.300212600E-1,-2.480392933E0,6.850110531E0,8.688857079E0
3.320212600E-1,-2.410961151E0,6.874052525E0,8.664915085E0
3.340212930E-1,-2.346317768E0,6.897994518E0,8.636184692E0
3.360213260E-1,-2.286462545E0,6.924330711E0,8.590695381E0
3.380213590E-1,-2.233790159E0,6.955455303E0,8.526051521E0
3.400213920E-1,-2.185906172E0,6.986579895E0,8.459013939E0
3.420222920E-1,-2.145204782E0,7.015310287E0,8.375216484E0
3.440232250E-1,-2.111685991E0,7.048829079E0,8.281843185E0
3.460232580E-1,-2.087743998E0,7.077559471E0,8.186075211E0
3.480232580E-1,-2.068590164E0,7.099107265E0,8.097489357E0
3.500223240E-1,-2.054224968E0,7.111078262E0,7.999327183E0
3.520223240E-1,-2.042253971E0,7.118260860E0,7.896376610E0
3.540223240E-1,-2.030282974E0,7.120655060E0,7.803002834E0
3.560223240E-1,-2.020706177E0,7.120655060E0,7.709628582E0
3.580223240E-1,-2.013523579E0,7.115866661E0,7.611466408E0
3.600223240E-1,-2.015917778E0,7.106289864E0,7.501333237E0
3.620214240E-1,-2.018311977E0,7.099107265E0,7.412747860E0
3.640212240E-1,-2.023100376E0,7.091924667E0,7.336133480E0
3.660211900E-1,-2.030282974E0,7.087136269E0,7.269095421E0
3.680211560E-1,-2.044648170E0,7.082347870E0,7.204452038E0
3.700211220E-1,-2.063801765E0,7.082347870E0,7.144597054E0
3.720210880E-1,-2.082955360E0,7.084742069E0,7.094318867E0
3.740210540E-1,-2.106897593E0,7.089530468E0,7.051223278E0
3.760210200E-1,-2.133233786E0,7.101501465E0,7.015310287E0
3.780210200E-1,-2.154781580E0,7.115866661E0,6.986579895E0
3.800210530E-1,-2.169146776E0,7.139808655E0,6.965032101E0
3.820219530E-1,-2.176329374E0,7.170933247E0,6.945878506E0
3.840227190E-1,-2.181117773E0,7.204452038E0,6.929119110E0
3.860227520E-1,-2.178723574E0,7.245153427E0,6.912359715E0
3.880227850E-1,-2.173935175E0,7.295432091E0,6.890811920E0
3.900228180E-1,-2.173935175E0,7.340921879E0,6.869264126E0
3.920228510E-1,-2.183511972E0,7.391200066E0,6.838139534E0
3.940228510E-1,-2.200271368E0,7.443872452E0,6.797437668E0
3.960228170E-1,-2.219424963E0,7.489362240E0,6.759130478E0
3.980227830E-1,-2.252943754E0,7.534852028E0,6.713640690E0
4.000227490E-1,-2.296039343E0,7.589918613E0,6.646603107E0
4.020218490E-1,-2.329558372E0,7.637802601E0,6.584353924E0
4.040209150E-1,-2.358288765E0,7.676109791E0,6.534075737E0
4.060208810E-1,-2.377442360E0,7.716811180E0,6.476614952E0
4.080208810E-1,-2.389413357E0,7.752724171E0,6.421548367E0
4.100208810E-1,-2.391807556E0,7.791031837E0,6.366481781E0
4.120209140E-1,-2.389413357E0,7.826944828E0,6.311414719E0
4.140209470E-1,-2.382230759E0,7.860463619E0,6.263530731E0
4.160209800E-1,-2.367865562E0,7.891588211E0,6.220435143E0
4.180210130E-1,-2.346317768E0,7.922712803E0,6.172551155E0
4.200210460E-1,-2.324769735E0,7.951443195E0,6.127061367E0
4.220219460E-1,-2.296039343E0,7.982567787E0,6.076783180E0
4.240221460E-1,-2.260126352E0,8.011298180E0,6.021716595E0
4.260221460E-1,-2.226607561E0,8.035240173E0,5.971438408E0
4.280221460E-1,-2.193088770E0,8.054393768E0,5.916371822E0
4.300221460E-1,-2.161964178E0,8.071153641E0,5.858911037E0
4.320221460E-1,-2.138022184E0,8.085518837E0,5.803843975E0
4.340221460E-1,-2.130839586E0,8.095095634E0,5.741594791E0
4.360221460E-1,-2.130839586E0,8.097489357E0,5.674557209E0
4.380221460E-1,-2.135627985E0,8.097489357E0,5.612308025E0
4.400221120E-1,-2.140416384E0,8.111854553E0,5.530905247E0
4.420212120E-1,-2.145204782E0,8.121431351E0,5.466261864E0
4.440202780E-1,-2.147598982E0,8.131008148E0,5.413589478E0
4.460202440E-1,-2.149993181E0,8.142979622E0,5.358522892E0
4.480202100E-1,-2.149993181E0,8.157344818E0,5.305850029E0
4.500201760E-1,-2.147598982E0,8.169315338E0,5.255571842E0
4.520201420E-1,-2.142810583E0,8.183680534E0,5.205293655E0
4.540201080E-1,-2.133233786E0,8.202834129E0,5.150227070E0
4.560201080E-1,-2.118868589E0,8.221987724E0,5.095160484E0
4.580201410E-1,-2.104503393E0,8.243535995E0,5.035305500E0
4.600201740E-1,-2.085349798E0,8.265083313E0,4.973056316E0
4.620210740E-1,-2.061407566E0,8.286631584E0,4.913201332E0
4.640220070E-1,-2.037465572E0,8.310573578E0,4.860229492E0
4.660220400E-1,-2.011129379E0,8.336909294E0,4.802768707E0
4.680220730E-1,-1.980004787E0,8.365639687E0,4.738125324E0
4.700221060E-1,-1.946485996E0,8.396764755E0,4.675876141E0
4.720221060E-1,-1.910573006E0,8.423100471E0,4.604049683E0
4.740220720E-1,-1.879448295E0,8.444648743E0,4.522646904E0
4.760220380E-1,-1.853112102E0,8.463802338E0,4.446032524E0
4.780220040E-1,-1.826775908E0,8.475772858E0,4.357447147E0
4.800219700E-1,-1.788468719E0,8.487744331E0,4.232948780E0
4.820210700E-1,-1.754949808E0,8.497321129E0,4.122815132E0
4.840202360E-1,-1.728613615E0,8.504503250E0,4.034229755E0
4.860202360E-1,-1.695094824E0,8.514080048E0,3.933673382E0
4.880202360E-1,-1.663970232E0,8.518868446E0,3.840299606E0
4.900202360E-1,-1.628057122E0,8.528446198E0,3.739742994E0
4.920202360E-1,-1.594538331E0,8.540416718E0,3.627215624E0
4.940202360E-1,-1.563413739E0,8.549993515E0,3.519476414E0
4.960202360E-1,-1.534683347E0,8.559570312E0,3.392583847E0
4.980202360E-1,-1.501164436E0,8.569147110E0,3.248931646E0
5.000202360E-1,-1.472434044E0,8.578723907E0,3.114856482E0
5.020211020E-1,-1.443703651E0,8.585906982E0,2.968810081E0
5.040220020E-1,-1.422155857E0,8.588300705E0,2.815581083E0
5.060220350E-1,-1.400607944E0,8.590695381E0,2.674323320E0
5.080220680E-1,-1.379060149E0,8.595483780E0,2.521094322E0
5.100221010E-1,-1.359906554E0,8.602665901E0,2.355894566E0
5.120221340E-1,-1.340752959E0,8.609848976E0,2.202665567E0
5.140221670E-1,-1.314416766E0,8.619425774E0,2.039859772E0
5.160222000E-1,-1.280897856E0,8.633790970E0,1.872265697E0
5.180222000E-1,-1.252167463E0,8.648156166E0,1.719036818E0
5.200221660E-1,-1.216254473E0,8.662521362E0,1.508347034E0
5.220212660E-1,-1.187524080E0,8.674491882E0,1.338358760E0
5.240203320E-1,-1.163581967E0,8.684068680E0,1.204283476E0
5.260202980E-1,-1.151610970E0,8.691251755E0,1.060631394E0
5.280202640E-1,-1.142034173E0,8.703222275E0,9.145850539E-1
5.300202300E-1,-1.134851575E0,8.715193748E0,7.805097699E-1
5.320201960E-1,-1.130063176E0,8.724770546E0,6.416460276E-1
5.340201960E-1,-1.125274777E0,8.736741066E0,5.003881454E-1
5.360202290E-1,-1.122880578E0,8.743924141E0,3.663128614E-1
5.380202620E-1,-1.115697980E0,8.748712540E0,2.250549644E-1
5.400202950E-1,-1.106121182E0,8.741529465E0,6.703764945E-2
5.420211950E-1,-1.091755986E0,8.722375870E0,-7.900865376E-2
5.440220280E-1,-1.067813993E0,8.688857079E0,-2.418143749E-1
5.460220610E-1,-1.027112484E0,8.614637375E0,-4.141969085E-1
5.480220940E-1,-9.600749016E-1,8.475772858E0,-5.913678408E-1
5.500221270E-1,-8.236053586E-1,8.279448509E0,-8.331822157E-1
5.520221270E-1,-6.847416759E-1,8.162133217E0,-1.096544385E0
5.540221270E-1,-5.746083856E-1,8.097489357E0,-1.326387763E0
5.560221270E-1,-5.171475410E-1,8.087912560E0,-1.534683347E0
5.580221270E-1,-6.584054828E-1,7.963414192E0,-1.714248419E0
5.600221270E-1,-9.983820915E-1,7.958625793E0,-1.810016513E0
5.620212600E-1,-1.271321058E0,7.953837395E0,-1.886630893E0
5.640203600E-1,-1.460463047E0,8.052000046E0,-1.939303398E0
5.660203260E-1,-1.551442742E0,8.231564522E0,-1.970427990E0
5.680202920E-1,-1.453280449E0,8.557176590E0,-1.996764183E0
5.700202580E-1,-1.223437071E0,8.928277016E0,-2.035071373E0
5.720202240E-1,-9.935936928E-1,9.249100685E0,-2.073378563E0
5.740201900E-1,-7.852981687E-1,9.495702744E0,-2.126051188E0
5.760201560E-1,-6.512228847E-1,9.641749382E0,-2.188300371E0
5.780201220E-1,-6.009446383E-1,9.715970039E0,-2.250549555E0
5.800201220E-1,-5.913678408E-1,9.692028046E0,-2.327163935E0
5.820209880E-1,-6.320692301E-1,9.596260071E0,-2.422932148E0
5.840219210E-1,-6.919242740E-1,9.488520622E0,-2.535459518E0
5.860219540E-1,-7.445967197E-1,9.349657059E0,-2.647987127E0
5.880219870E-1,-7.733271718E-1,9.206005096E0,-2.782062292E0
5.900220200E-1,-7.493851185E-1,9.076718330E0,-2.920926094E0
5.920220530E-1,-7.015010715E-1,8.968978882E0,-3.045424461E0
5.940220860E-1,-5.913678408E-1,8.880393028E0,-3.160346270E0
5.960220860E-1,-4.237737060E-1,8.815750122E0,-3.253720045E0
5.980220520E-1,-2.513911724E-1,8.770259857E0,-3.327940464E0
6.000220180E-1,4.070143029E-2,8.729558945E0,-3.383007050E0
6.020211180E-1,2.753331959E-1,8.698433876E0,-3.426102638E0
6.040201840E-1,4.620809257E-1,8.672098160E0,-3.459621429E0
6.060201500E-1,6.584054828E-1,8.650549889E0,-3.488351822E0
6.080201160E-1,8.403648138E-1,8.636184692E0,-3.521870613E0
6.100200820E-1,9.911994934E-1,8.624214172E0,-3.552995205E0
6.120200820E-1,1.115697980E0,8.612242699E0,-3.586514235E0
6.140201150E-1,1.213860273E0,8.597877502E0,-3.622427225E0
6.160201480E-1,1.290474772E0,8.583512306E0,-3.655946016E0
6.180201810E-1,1.355118155E0,8.564358711E0,-3.687070608E0
6.200202140E-1,1.414973259E0,8.542811394E0,-3.713406801E0
6.220211140E-1,1.470039845E0,8.523657799E0,-3.734954596E0
6.240220470E-1,1.534683347E0,8.506897926E0,-3.758896589E0
6.260220800E-1,1.611297727E0,8.492532730E0,-3.790021181E0
6.280221130E-1,1.683123827E0,8.478167534E0,-3.823540211E0
6.300221130E-1,1.764526606E0,8.466196060E0,-3.869029999E0
6.320221130E-1,1.845929503E0,8.456619263E0,-3.924096584E0
6.340221130E-1,1.917755604E0,8.449437141E0,-3.979163170E0
6.360221130E-1,1.980004787E0,8.437465668E0,-4.039018154E0
6.380217130E-1,2.027888775E0,8.418312073E0,-4.098873138E0
6.400217130E-1,2.032677174E0,8.396764755E0,-4.146757126E0
6.420208460E-1,2.037465572E0,8.380004883E0,-4.185064793E0
6.440199120E-1,2.032677174E0,8.365639687E0,-4.211400986E0
6.460198780E-1,2.018311977E0,8.353669167E0,-4.228160381E0
6.480198440E-1,1.987187386E0,8.344092369E0,-4.230554581E0
6.500198100E-1,1.953668594E0,8.334515572E0,-4.220977783E0
6.520197760E-1,1.924938202E0,8.327332497E0,-4.209006786E0
6.540197420E-1,1.905784607E0,8.322544098E0,-4.192247391E0
6.560197080E-1,1.898601890E0,8.320150375E0,-4.177882195E0
6.580197080E-1,1.898601890E0,8.320150375E0,-4.165910721E0
6.600197080E-1,1.905784607E0,8.317755699E0,-4.161122322E0
6.620206080E-1,1.924938202E0,8.310573578E0,-4.163516521E0
6.640215410E-1,1.944091797E0,8.300996780E0,-4.168305397E0
6.660218740E-1,1.965639591E0,8.286631584E0,-4.177882195E0
6.680219070E-1,1.989581585E0,8.265083313E0,-4.187458992E0
6.700219400E-1,2.011129379E0,8.243535995E0,-4.197035789E0
6.720219730E-1,2.030282974E0,8.219594002E0,-4.201824188E0
6.740219730E-1,2.049436569E0,8.200440407E0,-4.201824188E0
6.760219390E-1,2.066195965E0,8.183680534E0,-4.199429989E0
6.780219050E-1,2.085349798E0,8.174103737E0,-4.197035789E0
6.800218710E-1,2.102109194E0,8.162133217E0,-4.206612587E0
6.820209710E-1,2.116474390E0,8.152556419E0,-4.213795185E0
6.840200370E-1,2.128445387E0,8.145373344E0,-4.218583584E0
6.860198700E-1,2.133233786E0,8.135796547E0,-4.235342979E0
6.880198360E-1,2.135627985E0,8.126219749E0,-4.254496574E0
6.900198360E-1,2.138022184E0,8.114249229E0,-4.288015366E0
6.920198690E-1,2.145204782E0,8.102277756E0,-4.331110954E0
6.940199020E-1,2.159569979E0,8.087912560E0,-4.376600742E0
6.960199350E-1,2.173935175E0,8.068758965E0,-4.431667328E0
6.980203680E-1,2.185906172E0,8.044816971E0,-4.496310711E0
7.000204010E-1,2.202665567E0,8.013691902E0,-4.563348293E0
7.020213010E-1,2.219424963E0,7.982567787E0,-4.625597477E0
