Time (s),X (rad/s),Y (rad/s),Z (rad/s)
45.00512838,-0.365413666,2.125786066,-0.152385101
45.01518037,-0.380626977,2.148795366,-0.132821485
45.02523238,-0.385521859,2.181960106,-0.133602858
45.03528437,-0.412353486,2.247766495,-0.132550374
45.04533638,-0.439666867,2.314120293,-0.142466381
45.05538837,-0.465184748,2.391538382,-0.154192761
45.06544038,-0.508134067,2.483665943,-0.180777505
45.07549275,-0.560070157,2.552730083,-0.189729363
45.08554475,-0.605014741,2.598507643,-0.187085912
45.09559675,-0.64364183,2.666280508,-0.19709459
45.10564875,-0.678730309,2.719172955,-0.21899271
45.11570075,-0.703773797,2.753077984,-0.237831548
45.12575275,-0.713280499,2.785467148,-0.26551646
45.13580475,-0.719147563,2.802513123,-0.269672006
45.14585675,-0.722609162,2.806592941,-0.259608448
45.15590875,-0.735897422,2.796283484,-0.22205089
45.16596075,-0.748469174,2.775481224,-0.160152897
45.17601275,-0.770917535,2.77492404,-0.087615125
45.18606475,-0.775226533,2.745639801,-0.018595308
45.19611675,-0.761489153,2.744752407,0.047723737
45.20616775,-0.725692809,2.734737396,0.105375044
45.21622075,-0.705072224,2.651590824,0.155050993
45.22627275,-0.687589109,2.592612505,0.188729584
45.23632475,-0.700354457,2.59079051,0.244294927
45.24637675,-0.769321263,2.627444029,0.291287214
45.25642875,-0.866148531,2.656309605,0.291802228
45.26647975,-0.9516837,2.642091036,0.260714084
45.27653275,-1.005661011,2.675210953,0.229192197
45.28658475,-1.029355884,2.791234493,0.234434366
45.29663675,-1.033048153,3.018468618,0.296562016
45.30668875,-1.014825702,3.332505941,0.366089433
45.31674075,-0.967113555,3.64095068,0.430528283
45.32679275,-0.892169535,3.857556105,0.470354527
45.33684475,-0.764756322,3.998590708,0.509760916
45.34689675,-0.604587138,4.051908493,0.528932512
45.35694875,-0.451214045,3.90651679,0.556218684
45.36699975,-0.329543293,3.773088694,0.557174504
45.37705175,-0.233618677,3.547923326,0.538356781
45.38710475,-0.1440925,3.30005908,0.514947295
45.39715575,-0.063394964,3.095640421,0.477360368
45.40720875,0.033809613,2.983613491,0.470646292
45.41725975,0.105144046,2.903242111,0.494042039
45.42731275,0.152989343,2.896368027,0.528085768
45.43736475,0.183933973,2.890229464,0.55621016
45.44741575,0.180664405,2.890578747,0.583491623
45.45746775,0.160321072,2.913171053,0.618333936
45.46751975,0.113978334,2.959204435,0.662473917
45.47757275,0.045711812,2.988679886,0.731172144
45.48762375,-0.0455699,2.974863052,0.807979822
45.49767575,-0.159508884,2.963635206,0.882483959
45.50772775,-0.264599353,2.941313267,0.959278584
45.51777975,-0.35638094,2.886773348,1.04628396
45.52783175,-0.455389828,2.781984329,1.133885622
45.53788375,-0.533455432,2.697595596,1.226962447
45.54793575,-0.577413857,2.600174189,1.3230685
45.55798775,-0.581149697,2.485685349,1.414377689
45.56803975,-0.584736705,2.416830301,1.49540782
45.57809175,-0.549376845,2.325530529,1.491014957
45.58814375,-0.469819218,2.048101425,1.414606452
45.59819575,-0.367260993,2.128038406,1.342978716
45.60824775,-0.290764093,2.148481846,1.286957502
45.61829975,-0.228353217,2.177275896,1.242815137
45.62835175,-0.181261063,2.175633192,1.196479917
45.63840375,-0.146012858,2.211817503,1.182201624
45.64845575,-0.131109282,2.226890564,1.149733424
45.65850775,-0.107154548,2.195281267,1.120247126
45.66855975,-0.077700518,2.105568886,1.080828667
45.67861175,-0.048739679,2.079075336,1.065766096
45.68866375,-0.034757018,2.001325369,1.057005644
45.69871575,0.003597791,1.896001935,1.035596371
45.70876775,0.061839528,1.768819809,1.033392787
45.71881975,0.142864585,1.644401312,1.044662118
45.72887175,0.224862248,1.563899994,1.040963411
45.73892375,0.304001749,1.563060284,1.024278164
45.74897575,0.366795629,1.563094735,0.980495036
45.75902775,0.424289376,1.593652964,0.913085163
45.76907975,0.487186581,1.64179039,0.817132294
45.77913175,0.531599164,1.72441721,0.748895049
45.78918375,0.561097682,1.74738884,0.669507802
45.79923575,0.59346354,1.711990714,0.577436447
45.80928775,0.624598801,1.647518039,0.487390429
45.81933975,0.652515054,1.549337029,0.401925921
45.82939175,0.679971457,1.437093735,0.333379328
45.83944375,0.709137738,1.335190773,0.278771818
45.84949575,0.747823834,1.211599827,0.236956984
45.85954775,0.789430022,1.106334805,0.194207355
45.86959975,0.814005375,1.041991472,0.140402705
45.87965175,0.83146131,0.987930536,0.07853435
45.88970375,0.846797943,0.941220284,0.018089917
45.89975575,0.872776806,0.867719591,-0.047959451
45.90980775,0.879493833,0.785937369,-0.166643769
45.91985975,0.896783173,0.788416743,-0.313438475
45.92991175,0.876900852,0.869305193,-0.427709401
45.93996375,0.82247889,0.887370169,-0.503803909
45.95001575,0.810161293,0.877920985,-0.565000415
45.96006775,0.826267004,0.748144925,-0.608153522
45.97011975,0.794827879,0.578473568,-0.602863669
45.98017175,0.731904805,0.391444862,-0.531001151
45.99022375,0.651528716,0.191203654,-0.441232652
46.00027575,0.596806943,0.017825406,-0.369957209
46.01032775,0.562748611,-0.078499533,-0.325023294
46.02037975,0.534431577,-0.115572102,-0.287063181
46.03043175,0.497451216,-0.11650607,-0.268233568
46.04048375,0.443853051,-0.109244257,-0.260376394
46.05053575,0.373153836,-0.08424703,-0.265550911
46.06058775,0.31879437,-0.041311171,-0.28766498
46.07063933,0.30683732,0.025915001,-0.313680321
46.08069133,0.323178589,0.052842919,-0.349204928
46.09074333,0.367228329,2.63E-05,-0.381373495
46.10079533,0.428003907,-0.068051964,-0.396256059
46.11084733,0.477379441,-0.151629955,-0.405050635
46.12089933,0.498947382,-0.195701093,-0.409222692
46.13095133,0.489476144,-0.213366643,-0.3957977
46.14100333,0.475157768,-0.234903336,-0.361375392
46.15105533,0.446043551,-0.242107987,-0.325307667
46.16110733,0.397010863,-0.189186335,-0.287506908
46.17115933,0.366061211,-0.124460332,-0.258200437
46.18121133,0.354027212,-0.041654658,-0.240116611
46.19126333,0.348468125,0.052470509,-0.226828232
46.20131533,0.3352727,0.197004989,-0.218935192
46.21136733,0.331951201,0.302784145,-0.22416991
46.22141933,0.322993636,0.34043923,-0.236650184
46.23147133,0.308636516,0.292262107,-0.246492699
46.24152333,0.297626227,0.21458517,-0.240951464
46.25157533,0.278841078,0.193355516,-0.24784717
46.26162733,0.273171812,0.250403881,-0.251933128
46.27167933,0.269389331,0.354276508,-0.261994809
46.28173133,0.271559507,0.471344858,-0.277014673
46.29178333,0.258137465,0.543802023,-0.285510957
46.30183533,0.237263978,0.571476042,-0.289211273
46.31188733,0.208653644,0.573459029,-0.276594013
46.32193933,0.173940405,0.589846015,-0.261085004
46.33199133,0.138799205,0.618014216,-0.237984464
46.34204333,0.099841498,0.645697475,-0.21365799
46.35209533,0.066926964,0.677545667,-0.185406387
46.36214733,0.04449679,0.702606082,-0.16795367
46.37219933,0.025885288,0.713035286,-0.152033031
46.38225133,0.014205853,0.713422597,-0.137503207
46.39230333,0.006451793,0.706970811,-0.123408146
46.40235533,0.01049296,0.681871772,-0.118772082
46.41240733,0.017004922,0.645225883,-0.108312249
46.42245933,0.02401536,0.623762965,-0.100992374
46.43251133,0.042983726,0.613226712,-0.099251732
46.44256333,0.054259423,0.615000725,-0.093866587
46.45261533,0.059066959,0.632866859,-0.091685459
46.46266733,0.062596805,0.663724303,-0.089454502
46.47271933,0.059309132,0.714054346,-0.092923008
46.48277133,0.0510014,0.765636027,-0.086570032
46.49282333,0.027271038,0.805252433,-0.07557331
46.50287533,0.004678166,0.83679843,-0.060733836
46.51292733,-0.012679519,0.838772893,-0.053735048
46.52297933,-0.032370683,0.794179976,-0.041118912
46.53303133,-0.041466709,0.737418413,-0.024366833
46.54308333,-0.04248473,0.683006644,-0.015986303
46.55313533,-0.040564593,0.623004794,-0.014154049
46.56318733,-0.037161164,0.549850524,-0.014037065
46.57323933,-0.03622666,0.479033887,-0.006044121
46.58329133,-0.038340516,0.423642427,-0.009714053
46.59334333,-0.028432757,0.379598528,-0.023147037
46.60339533,-0.010699805,0.336794734,-0.038600598
46.61344733,0.01891268,0.300333917,-0.054066639
46.62349933,0.053767841,0.270207077,-0.06003448
46.63355133,0.084942535,0.237873092,-0.053039156
46.64360333,0.109523669,0.189235151,-0.029205024
46.65365533,0.116254009,0.150472045,-0.003112437
46.66370733,0.126458138,0.15137881,0.027575521
46.67375933,0.117927492,0.180932447,0.055230848
46.68381133,0.104041815,0.221464723,0.083741605
46.69386333,0.092808604,0.261146903,0.103086278
46.70391533,0.078591719,0.302640051,0.120912731
46.71396733,0.066093765,0.325214863,0.133664742
46.72401933,0.044328798,0.350748509,0.145812959
46.73407133,0.022928968,0.37434864,0.140938312
46.74412333,0.013011105,0.387273192,0.130686522
46.75417533,0.009100255,0.368299753,0.113185562
46.76422733,0.007450299,0.325020164,0.090587527
46.77427933,0.000674951,0.262580484,0.065992169
46.78433133,-0.004174644,0.219043836,0.040597819
46.79438333,-0.023264714,0.177409574,0.018164417
46.80443533,-0.040718555,0.149554849,-0.000852479
46.81448733,-0.057366773,0.124933139,-0.012941631
46.82453933,-0.084846251,0.101314277,-0.018638732
46.83459133,-0.10915345,0.11298611,-0.009757356
46.84464333,-0.124802172,0.137911081,-0.00387161
46.85469533,-0.12165831,0.164285436,0.000265611
46.86474733,-0.120630242,0.211712509,0.008914795
46.87479933,-0.126035661,0.257430732,0.010323873
46.88485133,-0.142294914,0.333238661,0.008063759
46.89490333,-0.14961727,0.396028519,0.007221134
46.90495533,-0.159944311,0.436808288,0.007586219
46.91500733,-0.161380813,0.430697918,0.011856332
46.92505933,-0.158592254,0.416317523,0.009197149
46.93511133,-0.141215399,0.367131859,0.011419291
46.94516333,-0.109638907,0.295475602,0.013425415
46.95521533,-0.072062239,0.219519332,0.007624251
46.96526733,-0.040396173,0.154453978,0.001413452
46.97531933,-0.014805325,0.104348198,0.000101313
46.98537133,-0.000622988,0.075286649,0.002780215
46.99542333,0.007709777,0.062397219,0.00084969
47.00547533,0.005336409,0.057871584,-0.003377368
47.01552733,-0.001622696,0.064454913,-0.003753939
47.02557933,-0.020642716,0.069699131,-0.004106271
47.03563133,-0.044984274,0.058981501,0.002420072
47.04568333,-0.073330097,0.050878901,0.009432942
47.05573533,-0.094694778,0.050097264,0.012400502
47.06578733,-0.106889747,0.045034945,0.017715175
47.07584008,-0.109500445,0.038946159,0.016628871
47.08589208,-0.103532963,0.028745677,0.012566969
47.09594408,-0.092011057,0.022920545,0.002123116
47.10599608,-0.07931298,0.012453564,-0.001449465
47.11604808,-0.059234876,0.008724339,-0.000382336
47.12610008,-0.041166008,0.000814533,-0.001199172
47.13615208,-0.026351107,-0.002074997,-0.002932889
47.14620408,-0.019740358,-0.011742475,0.000448828
47.15625608,-0.014763443,-0.022721622,0.002641143
47.16630808,-0.011782356,-0.029066931,0.005990522
47.17636008,-0.015297462,-0.037683588,0.010140527
47.18641208,-0.013755899,-0.036786594,0.009253212
47.19646408,-0.017972481,-0.034650207,0.007649191
47.20651608,-0.020711739,-0.02250994,0.004862966
47.21656808,-0.024537902,-0.012554245,0.002947354
47.22662008,-0.02632167,-0.005745947,-0.00236293
47.23667208,-0.036759663,-0.00882829,0.000212614
47.24672408,-0.040231377,-0.009157376,-0.001452022
47.25677608,-0.039052662,-0.003486707,-0.011137406
47.26682808,-0.037129223,-0.008345816,-0.013034713
47.27688008,-0.038880516,-0.017693246,-0.013307953
47.28693208,-0.035311524,-0.02281725,-0.01607265
47.29698408,-0.034560513,-0.028993119,-0.017759763
47.30703608,-0.030934108,-0.032457829,-0.018352272
47.31708808,-0.026332432,-0.038940761,-0.014237687
47.32714008,-0.026976049,-0.051384937,-0.013651549
47.33719208,-0.021348257,-0.053174846,-0.01452187
47.34724408,-0.018090017,-0.054211572,-0.017932
47.35729608,-0.018399211,-0.054314107,-0.016090691
47.36734808,-0.019796658,-0.057303146,-0.019204227
47.37740008,-0.018865351,-0.06034261,-0.01931395
47.38745208,-0.015166881,-0.058855809,-0.017441796
47.39750408,-0.013108257,-0.06135492,-0.016328063
47.40755608,-0.010140195,-0.063754275,-0.01061048
47.41760808,-0.007906602,-0.060403753,-0.006517202
47.42766008,-0.009513041,-0.060610615,-0.001075788
47.43771208,-0.01272295,-0.059261456,3.24E-05
47.44776408,-0.010131659,-0.058178764,-0.00088898
47.45781608,-0.007075149,-0.05278746,-0.003095142
47.46786808,-0.000894716,-0.049822439,-0.001337335
47.47792008,0.001931164,-0.04332326,0.000485865
47.48797208,0.00361812,-0.037198942,-0.000859309
47.49802408,0.008367069,-0.035323013,0.002696544
47.50807608,0.015821876,-0.034544662,-0.004261195
47.51812808,0.020197451,-0.032854885,-0.001509883
47.52818008,0.020438785,-0.029386334,-0.00521123
47.53823208,0.018852873,-0.021347849,-0.008110879
47.54828408,0.017929999,-0.021810083,-0.007480279
47.55833608,0.013509685,-0.020179164,-0.009836378
47.56838808,0.015188465,-0.018660083,-0.008865789
47.57844008,0.011367362,-0.013646417,-0.007729151
47.58849208,0.009365963,-0.011145299,-0.009074967
47.59854408,0.009342261,-0.0052701,-0.004841341
47.60859608,0.014836082,-0.003344288,-0.005182658
47.61864808,0.018341068,-0.004230854,-0.005421543
47.62870008,0.023232406,-0.005790851,-0.002424352
47.63875208,0.029754754,-0.008407939,-0.002744997
47.64880408,0.033312101,-0.00368972,-0.003178389
47.65885608,0.032423668,-0.003035381,-0.00291234
47.66890808,0.032212071,-0.003335213,-0.003818561
47.67896008,0.030079946,-0.007594407,-0.008046063
47.68901208,0.02803467,-0.007064589,-0.010174502
47.69906408,0.02491877,-0.01483596,-0.01483397
47.70911608,0.021151626,-0.014986798,-0.015571762
47.71916808,0.019430691,-0.019462239,-0.017201882
47.72922008,0.013097074,-0.020758042,-0.018970255
47.73927208,0.0094552,-0.014736103,-0.019599294
47.74932408,0.008761192,-0.010083374,-0.021824731
47.75937608,0.006434655,-0.007741123,-0.018950114
47.76942808,0.011511322,-0.005979466,-0.021248151
47.77948008,0.011799742,-0.009220267,-0.016152725
47.78953208,0.012742218,-0.007795403,-0.019900119
47.79958408,0.013494561,-0.008486228,-0.016372763
47.80963608,0.016182132,-0.011285651,-0.016241502
47.81968808,0.019845046,-0.015546443,-0.014190068
47.82974008,0.018594336,-0.019828714,-0.019014416
47.83979208,0.016021457,-0.020670008,-0.019493518
47.84984408,0.014175567,-0.01580314,-0.020684833
47.85989608,0.006691018,-0.013181257,-0.023179149
47.86994808,0.00148935,-0.00956156,-0.024023579
47.88000008,-0.003897692,-0.010387407,-0.027588487
47.89005208,-0.007496103,-0.018068444,-0.023491832
47.90010408,-0.010343023,-0.015722731,-0.025480947
47.91015608,-0.00824133,-0.021783808,-0.020380061
47.92020808,-0.007628537,-0.015131498,-0.025825161
47.93026008,-0.006279074,-0.019591894,-0.02186689
47.94031208,-0.008042885,-0.015190222,-0.024343096
47.95036408,-0.005529699,-0.015430572,-0.026536757
47.96041608,-0.008726025,-0.016942715,-0.025027543
47.97046808,-0.007713914,-0.021289147,-0.028151976
47.98052008,-0.004710401,-0.021515517,-0.0247149
47.99057208,-0.002070374,-0.018294826,-0.024424063
48.00062408,-0.001423492,-0.017003991,-0.019165918
48.01067608,0.000457765,-0.013786094,-0.01762528
48.02072808,0.009405454,-0.015520077,-0.014262507
48.03078008,0.013057816,-0.017108027,-0.009191917
48.04083208,0.01636786,-0.015857672,-0.006958856
48.05088408,0.019309742,-0.017576855,-0.006114887
48.06093608,0.018527305,-0.015175215,-0.00738921
48.07098771,0.021682855,-0.015447238,-0.005580354
48.08103971,0.019170698,-0.015229125,-0.007055213
48.09109171,0.019057117,-0.013225403,-0.00858232
48.10114371,0.017201163,-0.01304644,-0.010462511
48.11119571,0.012864083,-0.016579419,-0.011798243
48.12124771,0.00737371,-0.015657434,-0.009933764
48.13129971,0.005949061,-0.017386388,-0.009172787
48.14135171,0.004034248,-0.014566633,-0.008250268
48.15140371,0.005401782,-0.008323652,-0.005721063
48.16145571,0.006338948,-0.011651804,-0.006714423
48.17150671,0.013144568,-0.015261893,-0.006694482
48.18155871,0.018343857,-0.021071848,-0.006190345
48.19161071,0.018433619,-0.026268018,-0.008858671
48.20166271,0.024010014,-0.028168451,-0.007400856
48.21171571,0.023069454,-0.032793581,-0.009687204
48.22176671,0.021967972,-0.027738104,-0.008041371
48.23181871,0.021190703,-0.032154579,-0.011391638
48.24187071,0.022612035,-0.038698763,-0.009468836
48.25192371,0.021114254,-0.044774428,-0.007538904
48.26197571,0.01911715,-0.050827794,-0.009356244
48.27202671,0.01880705,-0.053688142,-0.005669621
48.28207871,0.019075494,-0.056154493,-0.005265086
48.29213071,0.016765155,-0.046945859,-0.002199272
48.30218271,0.016662356,-0.046151705,-0.008549048
48.31223471,0.015721811,-0.041374624,-0.005055108
48.32228671,0.012745729,-0.046046343,-0.009528952
48.33233871,0.016405109,-0.046313703,-0.013379326
48.34239071,0.014410667,-0.053170543,-0.013531925
48.35244271,0.011235485,-0.058385447,-0.016364634
48.36249471,0.008678317,-0.060261644,-0.016282076
48.37254671,0.004114441,-0.063467748,-0.015976405
48.38259871,0.005648155,-0.064444862,-0.015236044
48.39265071,0.006733683,-0.065368593,-0.008814129
48.40270271,0.008120923,-0.064103857,-0.007608783
48.41275471,0.010894373,-0.066678129,-0.008720015
48.42280671,0.013946623,-0.062726796,-0.007848629
48.43285871,0.017735891,-0.05876771,-0.006656176
48.44291071,0.018429378,-0.060106747,-0.00522233
48.45296271,0.01920649,-0.056245953,-0.002738503
48.46301471,0.018231241,-0.051539615,-0.002884444
48.47306671,0.016912196,-0.049071737,0.000973737
48.48311871,0.013951028,-0.049915425,0.001951916
48.49317071,0.013925953,-0.052020784,0.002099438
48.50322271,0.01617446,-0.051785894,0.001920474
48.51327471,0.0166161,-0.047970477,0.00031276
48.52332671,0.013731098,-0.045002118,-0.002347738
48.53337871,0.012155391,-0.04758494,-0.007295589
48.54343071,0.011153243,-0.040267639,-0.010392845
48.55348271,0.005880313,-0.039610334,-0.010662841
48.56353471,0.00329252,-0.041890532,-0.007481696
48.57358671,-0.000719494,-0.040985458,-0.007895002
48.58363871,-0.002303808,-0.036778197,-0.004752738
48.59369071,-0.002363803,-0.029028386,-0.005168594
48.60374271,-0.000595464,-0.026595321,-0.005752093
48.61379471,0.001885113,-0.023226045,-0.003543277
48.62384671,0.002423604,-0.024530195,-0.00610071
48.63389871,0.004045735,-0.020080853,-0.004994966
48.64395071,0.00545295,-0.023701154,-0.000780247
48.65400271,0.006373247,-0.019903136,-0.002942664
48.66405471,0.007991916,-0.019644277,-0.004473981
48.67410671,0.007070352,-0.014646168,-0.007341928
48.68415871,0.006328395,-0.014798501,-0.005742166
48.69421071,0.003736374,-0.012778635,-0.005982795
48.70426271,-0.003000092,-0.008048596,-0.005136975
48.71431471,-0.006710261,-0.007290691,-0.001588737
48.72436671,-0.00826315,-0.000744908,0.000601446
48.73441871,-0.007412109,0.000367658,0.000535037
48.74447071,-0.008848884,-0.000665649,-0.000726502
48.75452271,-0.006877328,0.003325293,0.000115117
48.76457471,-0.003965428,-0.000769051,0.000215784
48.77462671,-0.006095831,-0.002861449,-4.31E-05
48.78467871,-0.004260114,-0.000199086,-0.000218092
48.79473071,-0.003932686,-0.000403319,-0.000652835
48.80478271,-0.005244559,0.002057442,0.000435865
48.81483471,-0.006413371,0.00169423,0.004305722
48.82488671,-0.010590806,0.005876724,0.006049826
48.83493871,-0.00998174,0.004756599,0.008630696
48.84499071,-0.006949998,0.009585708,0.003142986
48.85504271,-0.006199322,0.00859157,0.005126533
48.86509471,-0.004606485,0.009218479,0.001844453
48.87514671,-0.001269552,0.006330006,0.004388414
48.88519871,0.00255022,0.002617293,0.004904801
48.89525071,0.002490646,0.004090284,0.004777797
48.90530271,0.004013974,0.004041282,0.00541083
48.91535471,0.000998241,0.008669438,0.010919271
48.92540671,-0.001822846,0.018661618,0.011791989
48.93545871,-0.00534546,0.019855995,0.010183791
48.94551071,-0.003372325,0.020623516,0.009369129
48.95556271,-0.009681163,0.014773363,0.009276852
48.96561471,-0.008513634,0.015532897,0.007211837
48.97566671,-0.01161303,0.018885372,0.006151895
48.98571871,-0.013392022,0.023069998,0.005225648
48.99577071,-0.015668401,0.020364935,0.002625636
49.00582271,-0.011374854,0.017521743,0.000666881
49.01587471,-0.012552929,0.014747542,0.002043845
49.02592671,-0.016751936,0.010638285,0.001805492
49.03597871,-0.014099804,0.008837432,0.0017951
49.04603071,-0.013794606,0.010704308,0.003249984
49.05608271,-0.012888843,0.009697836,0.00699328
49.06613471,-0.010830753,0.007278088,0.00729475
