"Time (s)","X (rad/s)","Y (rad/s)","Z (rad/s)"
1.156274998E-2,-1.390394866E-1,-1.550925225E-1,-1.009935066E-1
2.152974997E-2,-1.127018183E-1,-1.677713990E-1,-5.797437951E-2
3.149674996E-2,-1.066308767E-1,-1.888327301E-1,-1.903470419E-2
4.146374995E-2,-1.295057833E-1,-2.458886057E-1,1.306596864E-2
5.143075000E-2,-1.793825328E-1,-2.853286564E-1,3.807225078E-2
6.139774999E-2,-2.734959126E-1,-2.862352133E-1,5.778256804E-2
7.136574999E-2,-3.268786967E-1,-2.871436179E-1,8.702646941E-2
8.133274998E-2,-3.508974910E-1,-2.783955634E-1,1.126290485E-1
9.129974997E-2,-3.483464420E-1,-2.349453121E-1,1.119379625E-1
1.012667500E-1,-3.433849514E-1,-1.605558991E-1,9.630840272E-2
1.112337500E-1,-3.403079212E-1,-9.057494998E-2,7.259535044E-2
1.212007500E-1,-3.254737556E-1,-4.520111158E-2,6.668817252E-2
1.311677500E-1,-2.733983099E-1,-9.677471593E-3,9.782478958E-2
1.411347500E-1,-1.964109242E-1,2.273911983E-2,1.472160369E-1
1.511017500E-1,-1.227630749E-1,5.174680054E-2,1.967662722E-1
1.610697500E-1,-3.826085106E-2,8.140356094E-2,2.478028238E-1
1.710367500E-1,3.095071018E-2,1.027714387E-1,2.755124867E-1
1.810037500E-1,5.886250734E-2,1.188767329E-1,2.800146043E-1
1.909707500E-1,6.763921678E-2,1.272553056E-1,2.738850713E-1
2.009377500E-1,6.188077480E-2,1.338817179E-1,2.703060508E-1
2.109047500E-1,3.506008163E-2,1.364900172E-1,2.567881048E-1
2.208717500E-1,-6.294100080E-3,1.218205690E-1,2.418347150E-1
2.308387500E-1,-4.544256628E-2,1.146042049E-1,2.298883051E-1
2.408067500E-1,-8.732994646E-2,1.082987115E-1,2.171067148E-1
2.507737500E-1,-1.300827414E-1,1.208294183E-1,2.003756762E-1
2.607407500E-1,-1.699316800E-1,1.416227669E-1,2.034604102E-1
2.707077500E-1,-2.023750991E-1,1.562621593E-1,2.113018185E-1
2.806747500E-1,-2.231966406E-1,1.501815468E-1,2.246562392E-1
2.906417500E-1,-2.452329695E-1,1.106967106E-1,2.181253731E-1
3.006087500E-1,-2.637240887E-1,6.042984128E-2,1.952650547E-1
3.105757500E-1,-2.775647938E-1,2.059933916E-2,1.566580087E-1
3.205437500E-1,-3.068789542E-1,-3.206141293E-2,9.994602948E-2
3.305107500E-1,-3.306138217E-1,-1.128907427E-1,6.092565879E-2
3.404777500E-1,-3.630799651E-1,-2.057347596E-1,2.764278650E-2
3.504447500E-1,-4.661432505E-1,-2.854130566E-1,-6.774045527E-2
3.604117500E-1,-6.111945510E-1,-3.778895736E-1,-2.100635171E-1
3.703787500E-1,-8.084237576E-1,-4.706623554E-1,-3.409166038E-1
3.803457500E-1,-1.032546639E0,-4.985175729E-1,-4.354481697E-1
3.903127500E-1,-1.266202211E0,-3.691113889E-1,-5.104707479E-1
4.002797500E-1,-1.475950360E0,-2.325143963E-1,-5.408582091E-1
4.102477500E-1,-1.707992673E0,-1.407072395E-1,-5.164745450E-1
4.202147500E-1,-1.971574068E0,8.120466769E-2,-4.661501348E-1
4.301817500E-1,-2.259256124E0,2.217868119E-1,-3.540441096E-1
4.401487500E-1,-2.396423101E0,3.617846370E-1,-1.683666706E-1
4.501157500E-1,-2.354555845E0,5.592620373E-1,1.965436339E-2
4.600827500E-1,-2.209133625E0,6.636798382E-1,1.462320089E-1
4.700497500E-1,-2.097844839E0,5.421608686E-1,3.426521420E-1
4.800167500E-1,-1.966250300E0,2.779600322E-1,4.744729996E-1
4.899837500E-1,-1.750525475E0,-3.612444103E-1,5.286686420E-1
4.999517500E-1,-1.460563779E0,-1.436645508E0,5.481746793E-1
5.099187500E-1,-1.096603036E0,-2.192716360E0,5.906310678E-1
5.198857500E-1,-6.192760468E-1,-2.445733309E0,4.947937429E-1
5.298527500E-1,-1.602136493E-1,-2.532457829E0,3.979308307E-1
5.398197500E-1,2.172316909E-1,-2.379460335E0,4.117211998E-1
5.497867500E-1,4.790550470E-1,-1.929610372E0,4.535538554E-1
5.597537500E-1,6.075718403E-1,-1.319085598E0,3.725522459E-1
5.697207500E-1,4.127245545E-1,-7.867977023E-1,1.873522848E-1
5.796877500E-1,2.419019192E-1,-7.437740564E-1,1.514539570E-1
5.896557500E-1,1.486321539E-1,-5.448393822E-1,1.334155649E-1
5.996227500E-1,9.254101664E-2,-3.204880655E-1,1.005332321E-1
6.095897500E-1,5.174192041E-2,-1.520583034E-1,8.598598093E-2
6.195567500E-1,-9.791012108E-2,-4.928961098E-1,2.772643566E-1
6.295237500E-1,-2.826845050E-1,-8.966411352E-1,6.732566953E-1
6.394907500E-1,-3.597919643E-1,-1.069421649E0,1.204908013E0
6.494577500E-1,-3.372541666E-1,-9.951732159E-1,1.681584001E0
6.594247500E-1,-2.621044815E-1,-9.241495132E-1,1.957330585E0
6.693927500E-1,-1.400709897E-1,-1.021881938E0,2.130095243E0
6.793597499E-1,2.103851363E-2,-1.142711043E0,2.232377529E0
6.893267500E-1,1.730930209E-1,-1.195483088E0,2.200400114E0
6.992937500E-1,2.134210467E-1,-1.162478924E0,1.916290998E0
7.092607500E-1,1.584803015E-1,-1.075357914E0,1.369651675E0
7.192277500E-1,1.536384523E-1,-1.020749211E0,7.984049916E-1
7.291947500E-1,2.286913991E-1,-8.682478070E-1,3.819236159E-1
7.391617500E-1,2.961613834E-1,-5.104826689E-1,2.897457778E-1
7.491287500E-1,3.110971749E-1,-2.586608231E-1,4.139902294E-1
7.590967500E-1,2.547540069E-1,-2.038853616E-1,6.280572414E-1
7.690637500E-1,2.199608684E-1,-1.664570272E-1,8.828157783E-1
7.790307500E-1,2.089961916E-1,3.690510243E-2,1.088255525E0
7.889977500E-1,2.010855377E-1,3.000880182E-1,1.224894643E0
7.989647500E-1,1.307090223E-1,6.639218330E-1,1.331517339E0
8.089317500E-1,-6.301822141E-3,9.324757457E-1,1.398410678E0
8.188987500E-1,-1.299711764E-1,9.889125824E-1,1.207217216E0
8.288657500E-1,-9.495620430E-2,1.052749157E0,7.717955112E-1
8.388327500E-1,1.337797791E-1,1.154147029E0,3.218549788E-1
8.488007500E-1,2.768570483E-1,6.889798045E-1,2.894323170E-1
8.587677500E-1,4.331454039E-1,3.738707304E-1,3.256492019E-1
8.687347500E-1,5.877480507E-1,2.490263991E-2,2.759753764E-1
8.787017500E-1,5.884258747E-1,-1.826382279E-1,2.998548746E-1
8.886687500E-1,5.655671954E-1,-4.923337698E-1,4.922586679E-1
8.986357500E-1,5.492354035E-1,-4.459853172E-1,4.842838347E-1
9.086027500E-1,5.890275240E-1,-5.634919405E-1,4.167761803E-1
9.185697500E-1,6.132887602E-1,-7.956590652E-1,3.846304715E-1
9.285377500E-1,5.745312572E-1,-8.589102030E-1,3.607898653E-1
9.385047500E-1,4.822167754E-1,-7.542851567E-1,3.102849126E-1
9.484713750E-1,3.245786726E-1,-6.285258532E-1,2.740563154E-1
9.584383750E-1,1.395185441E-1,-3.478874564E-1,1.898892224E-1
9.684053750E-1,-3.103081509E-2,-1.050569490E-1,1.244801357E-1
9.783723750E-1,-1.453676671E-1,8.585822582E-2,6.983979046E-2
9.883393750E-1,-1.849539578E-1,2.208890021E-1,5.529733375E-2
9.983063750E-1,-1.821968406E-1,3.228099346E-1,7.505824417E-2
1.008273375E0,-1.509116143E-1,3.505526185E-1,1.397352517E-1
1.018241375E0,-9.150418639E-2,3.304837048E-1,1.947148740E-1
1.028208375E0,-1.816099696E-2,2.755157948E-1,2.206274271E-1
1.038175375E0,9.802782908E-3,2.399600297E-1,2.208077312E-1
1.048142375E0,-2.697999962E-2,2.474416494E-1,1.677274704E-1
1.058109375E0,-8.684590459E-2,2.641482651E-1,1.234271005E-1
1.068076375E0,-1.336751878E-1,2.128568441E-1,1.755307913E-1
1.078043375E0,-1.502011567E-1,1.183929220E-1,2.044508606E-1
1.088010375E0,-1.259394884E-1,-4.165799543E-2,2.165176421E-1
1.097977375E0,-7.464363426E-2,-1.929256171E-1,2.584608197E-1
1.107945375E0,-1.188677922E-2,-3.134238124E-1,3.050067723E-1
1.117912375E0,1.504994556E-2,-4.236634374E-1,3.579264283E-1
1.127879375E0,2.318004332E-2,-5.019734502E-1,4.062558711E-1
1.137846375E0,2.917213365E-2,-5.939137936E-1,4.447034001E-1
1.147813375E0,5.977558345E-2,-7.716981769E-1,4.820957780E-1
1.157780375E0,1.245655417E-1,-1.059472680E0,5.145685077E-1
1.167747375E0,2.208521366E-1,-1.493617415E0,5.678535700E-1
1.177714375E0,3.112037480E-1,-1.932636857E0,6.227847338E-1
1.187681375E0,3.773340285E-1,-2.292002916E0,7.168866992E-1
1.197648375E0,3.712632358E-1,-2.637092829E0,9.105195999E-1
1.207616375E0,3.053137660E-1,-2.996204376E0,1.173359394E0
1.217583375E0,2.318372875E-1,-3.403249741E0,1.462192059E0
1.227550375E0,2.309459299E-1,-3.881289721E0,1.738480210E0
1.237517375E0,3.000849187E-1,-4.363486767E0,2.023460150E0
1.247484375E0,4.053386450E-1,-4.816269875E0,2.308037996E0
1.257451375E0,4.313000441E-1,-5.205429077E0,2.570973873E0
1.267418375E0,3.673588634E-1,-5.483403206E0,2.811011553E0
1.277385375E0,1.692884117E-1,-5.625821114E0,3.040102482E0
1.287352375E0,-8.674416691E-2,-5.703873634E0,3.260479212E0
1.297320375E0,-3.176572919E-1,-5.766354084E0,3.497922182E0
1.307287375E0,-4.662742019E-1,-5.859964371E0,3.783383608E0
1.317254375E0,-5.668391585E-1,-5.908128262E0,4.109181404E0
1.327221375E0,-6.029199362E-1,-5.919849873E0,4.479898930E0
1.337188375E0,-5.680069923E-1,-5.911376476E0,4.864429474E0
1.347155375E0,-5.030647516E-1,-5.896791935E0,5.269745350E0
1.357122375E0,-4.006705284E-1,-5.912809849E0,5.634794712E0
1.367089375E0,-2.960919142E-1,-5.933031082E0,5.873170853E0
1.377056375E0,-1.114372239E-1,-6.022851944E0,5.998795509E0
1.387024375E0,2.152628601E-1,-6.167103767E0,6.043953419E0
1.396991375E0,6.569902301E-1,-6.284512997E0,6.064737797E0
1.406958375E0,1.133257627E0,-6.232203007E0,6.052947521E0
1.416925375E0,1.555708528E0,-5.930100441E0,6.020495415E0
1.426892375E0,1.809538126E0,-5.340174675E0,5.930946827E0
1.436859375E0,1.866988063E0,-4.494767666E0,5.747287750E0
1.446826375E0,1.748928189E0,-3.584708691E0,5.498669624E0
1.456793375E0,1.562107563E0,-2.739110470E0,5.221642494E0
1.466760375E0,1.387219071E0,-2.046542168E0,4.938778877E0
1.476728375E0,1.251802683E0,-1.528145313E0,4.658249855E0
1.486695375E0,1.183972359E0,-1.184165478E0,4.269923210E0
1.496662375E0,1.182522535E0,-1.003351450E0,3.740082264E0
1.506629375E0,1.212507129E0,-9.025364518E-1,3.138107300E0
1.516596375E0,1.251482010E0,-7.788719535E-1,2.492606878E0
1.526563375E0,1.308469415E0,-5.378590822E-1,1.851234436E0
1.536530375E0,1.349261284E0,-2.184899747E-1,1.273784399E0
1.546497375E0,1.331073761E0,1.405289024E-1,7.642928362E-1
1.556464375E0,1.237247825E0,4.360660315E-1,3.301078677E-1
1.566432375E0,1.108922601E0,6.106621027E-1,4.743810371E-2
1.576399375E0,9.863577485E-1,6.217216253E-1,-1.250732392E-1
1.586366375E0,9.000537395E-1,4.248596430E-1,-1.585885882E-1
1.596333375E0,8.432731628E-1,8.101221174E-2,-4.720798880E-2
1.606300375E0,8.035427928E-1,-2.958785892E-1,1.177764386E-1
1.616267375E0,7.293603420E-1,-5.593377948E-1,2.731401920E-1
1.626234375E0,6.531689167E-1,-6.571538448E-1,3.837197125E-1
1.636201375E0,5.611584783E-1,-5.823757052E-1,4.006896317E-1
1.646168375E0,4.433356822E-1,-3.237158656E-1,3.666339219E-1
1.656135375E0,2.847820222E-1,3.638381511E-2,3.027356267E-1
1.666103375E0,1.061116159E-1,4.059272408E-1,2.993392944E-1
1.676070375E0,-7.070457190E-2,7.692751884E-1,3.246790171E-1
1.686037375E0,-2.593434453E-1,1.116799593E0,3.631190956E-1
1.696004375E0,-5.131008625E-1,1.407409191E0,4.025325179E-1
1.705971375E0,-8.160247803E-1,1.629471779E0,3.709370494E-1
1.715938375E0,-1.089505911E0,1.784421206E0,1.997804940E-1
1.725905375E0,-1.154654264E0,1.741838336E0,-1.900221407E-1
1.735872375E0,-1.116842151E0,1.050713658E0,-4.347335994E-1
1.745839375E0,-1.046761870E0,1.727746427E-1,-5.732824802E-1
1.755807375E0,-9.809917808E-1,-6.530805230E-1,-6.518957615E-1
1.765774375E0,-9.521870017E-1,-1.359274030E0,-6.394409537E-1
1.775741375E0,-7.950290442E-1,-1.799161315E0,-6.172251701E-1
1.785708375E0,-5.272423029E-1,-1.803097725E0,-6.213567853E-1
1.795675375E0,-3.072702587E-1,-1.430047989E0,-6.151199341E-1
1.805642375E0,-2.329763472E-1,-9.873824120E-1,-5.375241637E-1
1.815609375E0,-2.568781972E-1,-6.563379169E-1,-4.378340542E-1
1.825576375E0,-3.191114664E-1,-4.000156224E-1,-3.264646530E-1
1.835543375E0,-5.483337641E-1,2.953070030E-2,-2.297114730E-1
1.845511375E0,-8.846536875E-1,4.119478464E-1,-2.488553524E-1
1.855478375E0,-1.280843258E0,7.339398861E-1,-3.421589136E-1
1.865445375E0,-1.626552463E0,9.987435937E-1,-5.630684495E-1
1.875412375E0,-1.822108030E0,1.143086553E0,-8.300977349E-1
1.885379375E0,-1.922260046E0,1.304489493E0,-9.761979580E-1
1.895346375E0,-2.193340778E0,1.646227360E0,-8.750127554E-1
1.905313375E0,-2.768395662E0,2.030591488E0,-2.103761435E-1
1.915280375E0,-2.903671026E0,4.255264759E0,-4.156863987E-1
1.925247375E0,-2.629966497E0,4.304497242E0,-7.017226815E-1
1.935214375E0,-1.618224859E0,4.350300789E0,-9.340470433E-1
1.945182708E0,-4.497365654E-1,3.876704454E0,-1.220600128E0
1.955149708E0,5.793626308E-1,2.797981024E0,-1.472599626E0
1.965116708E0,1.383360386E0,1.363124490E0,-1.451337814E0
1.975083708E0,2.201199055E0,1.419423521E-1,-1.533904552E0
1.985050708E0,2.867163897E0,-3.983554840E-1,-1.513917327E0
1.995017708E0,2.931461334E0,-3.318512738E-1,-1.328085899E0
2.004984708E0,2.541809797E0,1.649976373E-1,-9.522726536E-1
2.014951708E0,1.846676707E0,7.532675266E-1,-4.752626419E-1
2.024918708E0,1.148149014E0,1.140462399E0,-2.514475398E-2
2.034886708E0,7.560544014E-1,1.351834416E0,2.205995023E-1
2.044853708E0,8.022021651E-1,1.444429278E0,3.316778243E-1
2.054820708E0,1.201017618E0,1.165949464E0,4.619474113E-1
2.064787708E0,1.671941519E0,5.297600031E-1,6.078523993E-1
2.074754708E0,2.073626518E0,-3.150612488E-2,6.212335229E-1
2.084721708E0,2.263110399E0,-3.629746139E-1,4.862764478E-1
2.094688708E0,2.186443567E0,-4.137173295E-1,2.448286563E-1
2.104655708E0,1.890764713E0,-2.068179548E-1,-7.582978904E-2
2.114622708E0,1.523832560E0,1.241621822E-1,-3.860395551E-1
2.124589708E0,1.272961140E0,4.979938567E-1,-6.440376043E-1
2.134557708E0,1.059777498E0,5.992846489E-1,-7.374470830E-1
2.144524708E0,9.961510301E-1,7.154312134E-1,-8.342974782E-1
2.154491708E0,1.022920012E0,3.984725475E-1,-8.151877522E-1
2.164458708E0,1.263534784E0,1.740380973E-1,-8.109543920E-1
2.174425708E0,1.452053785E0,1.208760217E-1,-7.474582195E-1
2.184392708E0,1.432568669E0,-4.284499958E-2,-7.309010625E-1
2.194359708E0,1.257307053E0,-2.538056374E-1,-5.394711494E-1
2.204326708E0,1.243309736E0,-8.075209707E-2,-6.577826142E-1
2.214293708E0,1.382299542E0,-1.919825673E-1,-7.033873796E-1
2.224261708E0,1.588537216E0,-3.396833539E-1,-7.841962576E-1
2.234228708E0,1.580163240E0,1.884643883E-1,-8.513203859E-1
2.244195708E0,1.385688543E0,2.624597847E-1,-1.105729818E0
2.254162708E0,2.002698421E0,-2.127953172E-1,-1.113301396E0
2.264129708E0,2.332645893E0,-3.026439846E-1,-8.489262462E-1
2.274096708E0,1.531114101E0,-2.181694210E-1,-7.516419888E-1
2.284063708E0,2.220992744E-1,1.472134329E-2,-6.279141903E-1
2.294030708E0,-5.999025702E-2,-3.837971985E-1,-8.775081038E-1
2.303997708E0,1.708695889E-1,-1.810154319E0,-6.001931429E-1
2.313964708E0,5.612025261E-1,-2.229337215E0,-1.888793707E-1
2.323932708E0,9.704757929E-1,-1.665735841E0,-1.497479528E-1
2.333899708E0,1.101932049E0,2.092088759E-1,-8.072234988E-1
2.343866708E0,1.086249590E0,1.304333925E0,-1.454706192E0
2.353833708E0,1.371624708E0,1.798203468E0,-1.473766685E0
2.363800708E0,1.018194795E0,2.229123116E0,-1.639295459E0
2.373767708E0,8.948673606E-1,2.204588890E0,-1.817293882E0
2.383734708E0,1.974048138E0,2.414317369E0,-1.625641942E0
2.393701708E0,1.340210676E0,1.326225996E0,-1.084830403E0
2.403668708E0,-6.278258562E-2,1.040194988E0,-4.884700775E-1
2.413635708E0,-6.764963865E-1,7.175639868E-1,5.560043454E-2
2.423602708E0,-7.527669668E-1,3.049852252E-1,1.701861322E-1
2.433570708E0,-4.660108387E-1,3.106524795E-2,8.749015629E-2
2.443537708E0,-2.343957126E-1,-7.702820003E-2,1.224977896E-4
2.453504708E0,-1.563395262E-1,-6.722270697E-2,-9.434165806E-2
2.463471708E0,2.476075292E-2,-2.179104276E-2,-2.633924782E-1
2.473438708E0,1.635625958E-1,6.885125488E-2,-3.034631908E-1
2.483405708E0,1.760272533E-1,1.132099330E-1,-1.984292120E-1
2.493372708E0,1.235749424E-1,-4.401725531E-2,-8.759113029E-3
2.503339708E0,1.207621172E-1,-4.468339384E-1,2.071838379E-1
2.513306708E0,1.895835996E-1,-9.839028120E-1,4.297202229E-1
2.523273708E0,2.742204368E-1,-1.440423965E0,5.928815007E-1
2.533241708E0,3.325059712E-1,-1.781966090E0,7.473344207E-1
2.543208708E0,3.670016229E-1,-2.063436747E0,9.467540979E-1
2.553175708E0,3.859688938E-1,-2.144635201E0,1.110297680E0
2.563142708E0,2.908549011E-1,-2.083348274E0,1.143123031E0
2.573109708E0,2.247637808E-1,-1.963698387E0,1.150000453E0
2.583076708E0,2.067632079E-1,-1.825456977E0,1.125298262E0
2.593043708E0,2.099659294E-1,-1.665691137E0,1.116850138E0
2.603010708E0,2.454751879E-1,-1.613134503E0,1.041267037E0
2.612977708E0,2.954401970E-1,-1.592823863E0,1.003151774E0
2.622944708E0,3.084920943E-1,-1.548450232E0,1.002984881E0
2.632912708E0,3.419536948E-1,-1.535446405E0,9.446414113E-1
2.642879708E0,4.082528055E-1,-1.518904686E0,9.268423915E-1
2.652846708E0,4.812227786E-1,-1.558530211E0,9.127465487E-1
2.662813708E0,4.977447391E-1,-1.652516127E0,9.830942154E-1
2.672780708E0,4.895992577E-1,-1.643195152E0,1.067462087E0
2.682747708E0,3.893842399E-1,-1.483247280E0,1.163732409E0
2.692714708E0,2.968715429E-1,-1.254391551E0,1.161247730E0
2.702681708E0,1.620346308E-1,-9.478403330E-1,1.149339676E0
2.712648708E0,1.687934101E-1,-8.759367466E-1,9.913449883E-1
2.722615708E0,2.470495999E-1,-8.759437203E-1,7.637941241E-1
2.732583708E0,2.970789969E-1,-9.406441450E-1,6.329487562E-1
2.742550708E0,1.556217521E-1,-8.465139270E-1,7.103183866E-1
2.752517708E0,4.662937671E-2,-8.619092107E-1,8.479794860E-1
2.762484708E0,-2.882836200E-2,-6.516206861E-1,1.003331304E0
2.772451708E0,-1.277133226E-1,-4.608899355E-1,1.150286674E0
2.782418708E0,-2.851479650E-1,-3.192678094E-1,1.343504667E0
2.792385708E0,-2.816262245E-1,-2.487838268E-1,1.332404017E0
2.802352708E0,-4.182381332E-1,-7.787971944E-2,1.440068722E0
2.812319708E0,-3.494574130E-1,3.919126466E-3,1.522353768E0
2.822286708E0,-3.144320548E-1,-4.942478985E-2,1.599236250E0
2.832254708E0,-2.904510498E-1,-1.910452098E-1,1.569016337E0
2.842221708E0,-3.553496301E-1,-6.041475385E-2,1.605677605E0
2.852188708E0,-4.209543467E-1,-5.383986235E-2,1.766829729E0
2.862155708E0,-3.702325821E-1,-1.345650554E-1,1.797928095E0
2.872122708E0,-3.213102520E-1,-1.907615960E-1,1.778804421E0
2.882089708E0,-2.888793349E-1,1.118723005E-1,1.607076883E0
2.892056708E0,-2.103120089E-1,3.359200358E-1,1.243940473E0
2.902023708E0,-1.168348044E-1,5.006461143E-1,8.370427489E-1
2.911990708E0,-3.472528234E-2,3.558213115E-1,5.047265887E-1
2.921957708E0,1.282359380E-2,1.056460887E-1,3.498238325E-1
2.931925708E0,-1.275808271E-2,-4.651451856E-2,2.918300331E-1
2.941892708E0,-1.201646999E-1,-8.649495989E-2,1.847256869E-1
2.951859208E0,-2.360476851E-1,-1.294780523E-2,-7.772993296E-2
2.961826208E0,-2.412208766E-1,4.082221538E-2,-3.128215373E-1
2.971793208E0,-2.677991688E-1,-3.874249756E-2,-4.049211144E-1
2.981760208E0,-2.181980759E-1,1.259026378E-1,-4.860082269E-1
2.991727208E0,2.290448546E-2,2.492040843E-1,-6.351873279E-1
3.001694208E0,5.585444346E-2,-1.451919675E-1,-6.849790812E-1
3.011661208E0,1.196516827E-1,1.995059550E-1,-1.005761147E0
3.021628208E0,1.944569498E-1,-7.020249218E-2,-1.252866745E0
3.031595208E0,3.169935048E-1,2.165480107E-1,-1.952166796E0
3.041563208E0,4.332585931E-1,2.271116711E-2,-2.435045481E0
3.051530208E0,3.911369443E-1,-8.048665524E-2,-2.767526150E0
3.061497208E0,2.738196254E-1,-5.085073039E-2,-3.057108641E0
3.071464208E0,2.137532383E-1,2.061694860E-1,-3.233177662E0
3.081431208E0,2.915835241E-3,4.046373367E-1,-3.192936420E0
3.091398208E0,-2.453393936E-1,2.548261583E-1,-2.920067072E0
3.101365208E0,-2.530993223E-1,-2.466755807E-1,-2.628993511E0
3.111332208E0,2.966428408E-3,-6.114444137E-1,-2.435571909E0
3.121299208E0,6.465828419E-2,-5.934880972E-1,-2.236319780E0
3.131266208E0,-8.818086237E-2,-1.640018970E-1,-1.958589792E0
3.141233208E0,-2.263595015E-1,2.572830319E-1,-1.805626631E0
3.151201208E0,-1.496998966E-1,3.684973717E-1,-1.802046537E0
3.161168208E0,-5.295310915E-2,2.988394797E-1,-1.720971942E0
3.171135208E0,-4.305736348E-2,1.631830633E-1,-1.468089581E0
3.181102208E0,-8.448976278E-2,1.447587460E-2,-1.110964537E0
3.191069208E0,-1.216972023E-1,-1.300631166E-1,-7.894168496E-1
3.201036208E0,-1.258027256E-1,-2.036888748E-1,-5.351917148E-1
3.211003208E0,-8.485111594E-2,-2.683970332E-1,-4.002302289E-1
3.220970208E0,-6.043383386E-3,-3.939243257E-1,-3.521199524E-1
3.230937208E0,8.610685915E-2,-4.829207659E-1,-3.422057629E-1
3.240904208E0,1.183369681E-1,-4.446940124E-1,-2.981821299E-1
3.250872208E0,1.316967905E-1,-2.933029532E-1,-2.156643569E-1
3.260839208E0,1.714149117E-1,-1.352366507E-1,-1.756426394E-1
3.270806208E0,1.950715780E-1,-5.029173195E-2,-1.439813972E-1
3.280773208E0,2.120297849E-1,-5.051064491E-2,-8.644459397E-2
3.290740208E0,1.929800510E-1,-2.958630770E-2,-8.538064547E-3
3.300707208E0,1.390803307E-1,2.008883841E-2,8.366003633E-2
3.310674208E0,9.442789853E-2,8.117502928E-2,1.968952417E-1
3.320641208E0,3.705675155E-2,1.547089070E-1,3.258430958E-1
