"Time (s)","Acceleration x (m/s^2)","Acceleration y (m/s^2)","Acceleration z (m/s^2)"
1.226486600E-2,-1.182652593E0,4.103391647E0,9.746265411E0
1.468533500E-2,-1.015154958E0,4.115355968E0,9.650552750E0
1.708314700E-2,-8.644071817E-1,4.112963200E0,9.533304214E0
1.948069900E-2,-7.037889361E-1,4.117748737E0,9.387342453E0
2.187898100E-2,-5.841478109E-1,4.110570431E0,9.169296265E0
2.427710600E-2,-4.597210586E-1,4.100998878E0,8.932407379E0
2.667512600E-2,-3.113660514E-1,4.067499161E0,8.709874153E0
2.907314700E-2,-1.770688742E-1,4.038785458E0,8.412865639E0
3.147101200E-2,-9.092725813E-2,3.986143351E0,8.156833649E0
3.386934500E-2,-1.435693540E-2,3.957429647E0,7.924430370E0
3.629450100E-2,5.024927482E-2,3.897608995E0,7.606184959E0
3.874694900E-2,6.221338734E-2,3.861716747E0,7.440781116E0
4.119960600E-2,4.785645381E-2,3.825824261E0,7.285247803E0
4.365132400E-2,1.914258115E-2,3.799503326E0,7.203891754E0
4.610715800E-2,-2.153540403E-2,3.754039526E0,7.096214771E0
4.856674100E-2,-9.810572863E-2,3.718147278E0,7.048357964E0
5.102491800E-2,-1.914258152E-1,3.689433336E0,7.026822567E0
5.348184500E-2,-2.536391914E-1,3.672683716E0,7.050751209E0
5.593778300E-2,-3.305086195E-1,3.684647799E0,7.129714012E0
5.839288700E-2,-3.616153300E-1,3.667897940E0,7.213462830E0
6.084726200E-2,-4.118646085E-1,3.684647799E0,7.287640572E0
6.330096000E-2,-4.381856322E-1,3.727718592E0,7.383353233E0
6.575408500E-2,-4.357928336E-1,3.754039526E0,7.505387306E0
6.820674100E-2,-4.405784607E-1,3.763610840E0,7.594220638E0
7.065898100E-2,-4.405784607E-1,3.813860178E0,7.680362701E0
7.311075100E-2,-4.094717801E-1,3.847359657E0,7.778468132E0
7.556215800E-2,-4.286143482E-1,3.931108475E0,7.881359577E0
7.801319900E-2,-3.735794425E-1,3.957429647E0,7.967501163E0
8.046392800E-2,-3.376871049E-1,3.988536358E0,8.072785378E0
8.291429300E-2,-3.185445070E-1,4.024428368E0,8.140083313E0
8.536434500E-2,-2.826521695E-1,4.036392689E0,8.195118904E0
8.781413700E-2,-2.608176768E-1,4.043570995E0,8.286046028E0
9.025387600E-2,-2.512463629E-1,4.065106392E0,8.341080666E0
9.266622000E-2,-2.416750938E-1,4.055535316E0,8.400900841E0
9.506153300E-2,-2.368894368E-1,4.019642830E0,8.463114738E0
9.745767800E-2,-2.536391914E-1,4.012464523E0,8.513363838E0
9.985377200E-2,-2.177468538E-1,3.993321896E0,8.577970505E0
1.022490850E-1,-2.081755698E-1,3.957429647E0,8.642576218E0
1.046443970E-1,-2.057827413E-1,3.892823458E0,8.743373871E0
1.070404910E-1,-1.818545163E-1,3.842574120E0,8.819944382E0
1.094365850E-1,-1.842473447E-1,3.789932013E0,8.879764557E0
1.118319490E-1,-1.890329868E-1,3.732504129E0,8.997013092E0
1.142272620E-1,-1.866401732E-1,3.689433336E0,9.073583603E0
1.166233560E-1,-1.842473447E-1,3.602992773E0,9.133403778E0
1.190194490E-1,-1.698904037E-1,3.538386583E0,9.221938133E0
1.214147620E-1,-1.674975902E-1,3.457030535E0,9.272486687E0
1.238100740E-1,-1.387837082E-1,3.368496180E0,9.356235504E0
1.262061680E-1,-9.092725813E-2,3.277568817E0,9.418449402E0
1.286022620E-1,-3.828516230E-2,3.189034462E0,9.502198219E0
1.309976260E-1,2.392822690E-2,3.124428272E0,9.542876244E0
1.333929390E-1,1.316052526E-1,3.052344322E0,9.593125343E0
1.357890330E-1,2.033899277E-1,2.978166819E0,9.609874725E0
1.381851260E-1,2.679961324E-1,2.935096025E0,9.650552750E0
1.405804390E-1,3.520440459E-1,2.887239695E0,9.640981674E0
1.429757510E-1,4.070789516E-1,2.834597588E0,9.650552750E0
1.453718970E-1,4.645066857E-1,2.836990356E0,9.664909363E0
1.477679910E-1,5.075774789E-1,2.808276415E0,9.648159981E0
1.501633030E-1,5.721837282E-1,2.789133787E0,9.593125343E0
1.525586160E-1,6.032904387E-1,2.758027315E0,9.559625626E0
1.549547100E-1,6.200401783E-1,2.753241539E0,9.502198219E0
1.573508030E-1,6.750751138E-1,2.758027315E0,9.437591553E0
1.597461680E-1,7.277171612E-1,2.755634308E0,9.351449966E0
1.621414810E-1,7.731808424E-1,2.760420084E0,9.286844254E0
1.645375740E-1,8.548358679E-1,2.765205622E0,9.212367058E0
1.669336680E-1,9.026923180E-1,2.810669184E0,9.154939651E0
1.693289810E-1,9.672985673E-1,2.841775894E0,9.066405296E0
1.717242930E-1,1.046261668E0,2.892025232E0,9.006584167E0
1.741204390E-1,1.096511006E0,2.918346405E0,8.963513374E0
1.765165330E-1,1.151545882E0,2.956631422E0,8.918049812E0
1.789118450E-1,1.199402332E0,2.980559587E0,8.886942863E0
1.813071580E-1,1.232901812E0,3.014059305E0,8.803194046E0
1.837032510E-1,1.261615753E0,3.028416157E0,8.769695282E0
1.860993450E-1,1.297508121E0,3.023630619E0,8.748159409E0
1.884947100E-1,1.316650629E0,3.023630619E0,8.733802795E0
1.908900220E-1,1.323829174E0,3.042773008E0,8.731410027E0
1.932861160E-1,1.335793257E0,3.061915636E0,8.769695282E0
1.956822100E-1,1.340578914E0,3.052344322E0,8.764909744E0
1.980775220E-1,1.340578914E0,3.040380239E0,8.791230202E0
2.004728350E-1,1.352542996E0,3.040380239E0,8.843872070E0
2.028689810E-1,1.359721422E0,3.069094181E0,8.851051331E0
2.052650740E-1,1.371685624E0,3.052344322E0,8.855836868E0
2.076603870E-1,1.352542996E0,3.057130098E0,8.839086533E0
2.100556990E-1,1.321436286E0,3.069094181E0,8.831908226E0
2.124517930E-1,1.328614831E0,3.107678413E0,8.829515457E0
2.148478870E-1,1.309472203E0,3.107678413E0,8.819944382E0
2.172432510E-1,1.295115232E0,3.107678413E0,8.815158844E0
2.196385640E-1,1.292722464E0,3.112463951E0,8.829515457E0
2.220346580E-1,1.275972724E0,3.124428272E0,8.827122688E0
2.244308030E-1,1.268794179E0,3.131606579E0,8.824729919E0
2.268260640E-1,1.261615753E0,3.153141975E0,8.798408508E0
2.292213760E-1,1.254437327E0,3.184248686E0,8.767302513E0
2.316175220E-1,1.249651670E0,3.177070379E0,8.736195564E0
2.340136160E-1,1.237687469E0,3.186641455E0,8.717052460E0
2.364089280E-1,1.213759303E0,3.193820000E0,8.680861473E0
2.388042410E-1,1.220937729E0,3.205784082E0,8.668897629E0
2.412003870E-1,1.252044439E0,3.212962627E0,8.592327118E0
2.435964810E-1,1.278365493E0,3.234498024E0,8.566005707E0
2.459917930E-1,1.314257860E0,3.251247883E0,8.527720451E0
2.483871060E-1,1.335793257E0,3.284747362E0,8.499007225E0
2.507831990E-1,1.354935765E0,3.306282759E0,8.448758125E0
2.531793450E-1,1.369292736E0,3.315854073E0,8.415258408E0
2.555746060E-1,1.429412484E0,3.306282759E0,8.357830048E0
2.579699180E-1,1.470090389E0,3.284747362E0,8.264510155E0
2.603660640E-1,1.501197100E0,3.267997503E0,8.185546875E0
2.627621580E-1,1.510768414E0,3.265604734E0,8.115856171E0
2.651574700E-1,1.508375525E0,3.256033421E0,8.017750740E0
2.675527830E-1,1.491625786E0,3.232105255E0,7.917252064E0
2.699489280E-1,1.498804331E0,3.203391314E0,7.809575081E0
2.723450220E-1,1.477268934E0,3.198605776E0,7.692326546E0
2.747403350E-1,1.494018674E0,3.167499065E0,7.577471256E0
2.771356470E-1,1.556231976E0,3.112463951E0,7.479066372E0
2.795317410E-1,1.594517231E0,3.033201694E0,7.390532017E0
2.819278870E-1,1.498804331E0,2.968595505E0,7.287640572E0
2.843231470E-1,1.745265007E0,2.899203777E0,7.211070061E0
2.867184600E-1,2.080559254E0,2.851347208E0,7.165606499E0
2.891146060E-1,2.365305185E0,2.801098108E0,7.089035988E0
2.915106990E-1,2.506481647E0,2.714956284E0,6.983452797E0
2.939060120E-1,2.573779821E0,2.659921408E0,6.923632145E0
2.963013240E-1,2.863311291E0,2.568994284E0,6.911668301E0
2.986974700E-1,3.114856958E0,2.453839540E0,6.933203697E0
3.010935640E-1,3.284747362E0,2.348555326E0,6.945167542E0
3.034888760E-1,3.497708559E0,2.312663078E0,6.916453838E0
3.058841890E-1,3.651148319E0,2.276770830E0,6.921239376E0
3.082802830E-1,3.763610840E0,2.164308071E0,6.947560310E0
3.106764280E-1,3.780360699E0,2.068595171E0,6.988238335E0
3.130717410E-1,3.763610840E0,1.968096614E0,7.041179657E0
3.154670530E-1,3.715754509E0,1.829013824E0,7.105785847E0
3.178631470E-1,3.658326626E0,1.742872238E0,7.134500027E0
3.202592410E-1,3.574278831E0,1.635195136E0,7.184749126E0
3.226545530E-1,3.468994617E0,1.505982757E0,7.206284523E0
3.250498660E-1,3.366103172E0,1.374078393E0,7.234998226E0
3.274460120E-1,3.306282759E0,1.244866014E0,7.249355316E0
3.298421060E-1,3.236890793E0,1.089332461E0,7.232605457E0
3.322374180E-1,3.215355396E0,6.367899179E-1,7.139285564E0
3.346327310E-1,3.244069338E0,3.017947674E-1,7.189534664E0
3.370288760E-1,3.256033421E0,1.004985496E-1,7.383353233E0
3.394249700E-1,3.076272726E0,1.268195957E-1,7.529315472E0
3.418202830E-1,2.870489836E0,2.874378264E-1,7.697112083E0
3.442155950E-1,2.741277456E0,4.501497746E-1,7.900502205E0
3.466116890E-1,2.781955481E0,5.267201066E-1,8.293224335E0
3.490078350E-1,2.980559587E0,5.745765567E-1,8.922835350E0
3.514030950E-1,3.136392355E0,5.626124144E-1,9.423234940E0
3.537984080E-1,3.468994617E0,3.185445070E-1,9.885348320E0
3.561945530E-1,4.307080746E0,-7.301099896E-1,1.041446114E1
3.585906470E-1,5.839085579E0,-2.970988512E0,1.134796143E1
3.609859600E-1,5.935097694E0,-4.050749779E0,1.183400345E1
3.633812720E-1,5.506483078E0,-4.836193562E0,1.193450165E1
3.657774180E-1,5.156831741E0,-4.927121162E0,1.204696465E1
3.681735120E-1,4.354937077E0,-4.340580463E0,1.224108219E1
3.705688240E-1,3.363710403E0,-3.933501244E0,1.180289650E1
3.729641370E-1,2.743670225E0,-3.715754509E0,1.130249786E1
3.753602310E-1,2.343769789E0,-3.378067255E0,1.092413235E1
3.777563760E-1,2.185843468E0,-3.011666298E0,1.063220787E1
3.801516370E-1,1.941476464E0,-2.789133787E0,1.039292622E1
3.825469490E-1,1.470090389E0,-2.683849812E0,1.008156013E1
3.849430950E-1,7.683951855E-1,-2.573779821E0,9.705587387E0
3.873391890E-1,-8.135596663E-2,-2.468196630E0,9.315557480E0
3.897345010E-1,-1.000798106E0,-2.355733871E0,8.932407379E0
3.921298140E-1,-1.965703845E0,-2.188236237E0,8.554041862E0
3.945259600E-1,-2.880061150E0,-1.987239242E0,8.247760773E0
3.969220530E-1,-3.699004650E0,-1.716551185E0,7.998608112E0
3.993173660E-1,-4.354937077E0,-1.424626827E0,7.847859859E0
4.017126780E-1,-4.814658165E0,-1.115653515E0,7.819146156E0
4.041088240E-1,-5.034798145E0,-5.171487927E-1,7.680362701E0
4.065049180E-1,-5.051547527E0,2.608176768E-1,7.292426109E0
4.089002310E-1,-4.829015255E0,1.067797065E0,7.084250450E0
4.112955430E-1,-4.505684853E0,1.728515267E0,7.301997185E0
4.136916370E-1,-4.108177185E0,2.149951220E0,8.216653824E0
4.160877310E-1,-3.490530014E0,2.600100994E0,9.358628273E0
4.184830430E-1,-2.688635349E0,3.148356438E0,1.038335514E1
4.208783560E-1,-1.857727647E0,3.770789385E0,1.128574753E1
4.232745010E-1,-1.046261668E0,4.323830605E0,1.218126202E1
4.256705950E-1,-3.161516786E-1,4.826622486E0,1.305015564E1
4.280659080E-1,2.922234535E-1,5.231009483E0,1.377817154E1
4.304612200E-1,7.779664397E-1,5.566303730E0,1.438385487E1
4.328573660E-1,1.163509965E0,5.798407555E0,1.497039604E1
4.352534600E-1,1.364507079E0,5.987739563E0,1.542981815E1
4.376487720E-1,1.450947881E0,6.071488380E0,1.579382610E1
4.400440850E-1,1.458126307E0,6.085845470E0,1.610040665E1
4.424401780E-1,1.352542996E0,6.021239281E0,1.625354767E1
4.448363240E-1,1.065404296E0,5.872584820E0,1.604297829E1
4.472316370E-1,4.334000051E-1,5.712265968E0,1.493450356E1
4.496269490E-1,-3.400799036E-1,5.470590591E0,1.339023590E1
4.520230430E-1,-6.176473498E-1,5.104189873E0,1.325862980E1
4.544191890E-1,-6.655037999E-1,4.644468784E0,1.395045471E1
4.568144490E-1,-9.170492887E-1,4.328616142E0,1.466620827E1
4.592097620E-1,-1.244866014E0,4.089034557E0,1.512592888E1
4.616059080E-1,-1.642373681E0,3.868895054E0,1.540588951E1
4.640020010E-1,-2.082952023E0,3.687040567E0,1.542742443E1
4.663973140E-1,-2.465803623E0,3.507279873E0,1.553300858E1
4.687926260E-1,-2.815454960E0,3.315854073E0,1.546361637E1
4.711887720E-1,-3.054737091E0,3.136392355E0,1.525274849E1
4.735848660E-1,-3.260818958E0,3.049951553E0,1.491057491E1
4.759801780E-1,-3.361317635E0,3.006880760E0,1.429502201E1
4.783754910E-1,-3.464209080E0,3.009273529E0,1.367976665E1
4.807715850E-1,-3.485744476E0,2.942274570E0,1.315065384E1
4.831677310E-1,-3.535993576E0,3.006880760E0,1.243490124E1
4.855629910E-1,-3.648755312E0,3.131606579E0,1.193210888E1
4.879583030E-1,-3.703790426E0,3.239283562E0,1.120678520E1
4.903544490E-1,-3.670290947E0,3.330210924E0,1.056520939E1
4.927505950E-1,-3.619742393E0,3.545564890E0,9.880562782E0
4.951458560E-1,-3.342175007E0,3.710968733E0,9.341878891E0
4.975411680E-1,-2.880061150E0,3.801896095E0,8.796015739E0
4.999373140E-1,-2.367697954E0,3.871287823E0,8.209475517E0
5.023334080E-1,-1.924726725E0,3.885644913E0,7.778468132E0
5.047287200E-1,-1.482054472E0,4.005286217E0,7.613363266E0
5.071240330E-1,-1.103689432E0,4.177569389E0,7.704290867E0
5.095201780E-1,-8.811569214E-1,4.326223373E0,7.850253105E0
5.119162720E-1,-8.476574421E-1,4.472185612E0,8.008178711E0
5.143115850E-1,-8.859425783E-1,4.639683247E0,8.159226418E0
5.167068970E-1,-9.170492887E-1,4.843372345E0,8.436793327E0
5.191029910E-1,-9.601200819E-1,4.979763031E0,8.772088051E0
5.214991370E-1,-1.012762189E0,5.108975410E0,9.044869423E0
5.238943970E-1,-1.091725349E0,5.228616714E0,9.248259544E0
5.262897100E-1,-1.170688510E0,5.314758301E0,9.461520195E0
5.286858560E-1,-1.216152072E0,5.365306377E0,9.640981674E0
5.310819490E-1,-1.266401410E0,5.394020557E0,9.844670296E0
5.334772620E-1,-1.225723386E0,5.348556995E0,1.006002426E1
5.358725740E-1,-9.314061999E-1,5.106582642E0,1.020359421E1
5.382687200E-1,-5.027918816E-1,4.673182487E0,1.035434151E1
5.406648140E-1,-5.503492057E-2,4.201497555E0,1.035194874E1
5.430601260E-1,3.664009571E-1,3.754039526E0,1.023948669E1
5.454554390E-1,7.253243923E-1,3.346960783E0,1.014138031E1
5.478515850E-1,1.024726272E0,3.052344322E0,1.002891827E1
5.502476780E-1,1.448554993E0,2.899203777E0,9.763015747E0
5.526429910E-1,1.876870275E0,2.865704298E0,9.356235504E0
5.550383030E-1,2.257628202E0,2.956631422E0,9.028120041E0
5.574343970E-1,2.549851656E0,3.136392355E0,8.666504860E0
5.598305430E-1,2.717349291E0,3.342175007E0,8.336295128E0
5.622258030E-1,2.671885490E0,3.473780155E0,7.924430370E0
5.646211160E-1,2.504088879E0,3.524029493E0,7.548458099E0
5.670172620E-1,2.245664120E0,3.569493294E0,7.203891754E0
5.694133560E-1,1.999203324E0,3.581457376E0,7.237390995E0
5.718086680E-1,1.740479350E0,3.586242914E0,7.507780075E0
5.742039810E-1,1.491625786E0,3.545564890E0,7.587042332E0
5.766001260E-1,1.309472203E0,3.490530014E0,7.488637447E0
5.789962200E-1,1.108475089E0,3.471387386E0,7.376174927E0
5.813915330E-1,8.763712645E-1,3.504886866E0,7.268497944E0
5.837868450E-1,5.482555032E-1,3.581457376E0,7.342675209E0
5.861829910E-1,1.603191197E-1,3.660719633E0,7.395317554E0
5.885790850E-1,-1.698904037E-1,3.667897940E0,7.479066372E0
5.909743970E-1,-3.855435550E-1,3.602992773E0,7.699504852E0
5.933697100E-1,-5.075774789E-1,3.524029493E0,7.890930653E0
5.957658560E-1,-6.200401783E-1,3.409173965E0,8.113463402E0
5.981619490E-1,-6.607181430E-1,3.294318676E0,8.278866768E0
6.005572100E-1,-6.080760360E-1,3.174677372E0,8.460721970E0
6.029525220E-1,-5.578267574E-1,3.112463951E0,8.717052460E0
6.053486680E-1,-4.884349108E-1,3.093321562E0,8.867800713E0
6.077448140E-1,-4.573282301E-1,3.037987471E0,9.044869423E0
6.101400740E-1,-4.549354017E-1,2.966202736E0,9.267701149E0
6.125353870E-1,-4.525425732E-1,2.889632463E0,9.413662910E0
6.149315330E-1,-4.477569461E-1,2.791526794E0,9.480662346E0
6.173276260E-1,-4.405784607E-1,2.717349291E0,9.590732574E0
6.197229390E-1,-4.621138871E-1,2.633600473E0,9.662516594E0
6.221182510E-1,-4.118646085E-1,2.588136673E0,9.602696419E0
6.245143970E-1,-3.472583890E-1,2.573779821E0,9.638588905E0
6.269104910E-1,-2.703889608E-1,2.576172590E0,9.686445236E0
6.293058030E-1,-1.172483116E-1,2.559422970E0,9.672088623E0
6.317011160E-1,5.742774159E-2,2.542673111E0,9.648159981E0
6.340972620E-1,2.994019389E-1,2.545065880E0,9.669695854E0
6.364933560E-1,5.769693851E-1,2.554637194E0,9.703194618E0
6.388886680E-1,8.907282352E-1,2.597707987E0,9.755837440E0
6.412839810E-1,1.208973646E0,2.686242580E0,9.880562782E0
6.436800740E-1,1.539482236E0,2.813062191E0,9.966704369E0
6.460762200E-1,1.831406593E0,2.887239695E0,1.001934624E1
6.484714810E-1,2.092523336E0,2.968595505E0,1.011984539E1
6.508667930E-1,2.355733871E0,3.028416157E0,1.027059269E1
6.532629390E-1,2.619243383E0,3.049951553E0,1.057717323E1
6.556590330E-1,2.927917719E0,3.076272726E0,1.093609715E1
6.580543450E-1,2.899203777E0,3.110071182E0,1.084277630E1
6.604496580E-1,3.042773008E0,3.129213810E0,1.115653515E1
6.628458030E-1,2.966202736E0,3.162713289E0,1.128574753E1
6.652418970E-1,2.880061150E0,3.141177893E0,1.130010509E1
6.676372100E-1,2.832204819E0,3.098107100E0,1.127617645E1
6.700325220E-1,2.777169704E0,3.026023388E0,1.125942707E1
6.724286680E-1,2.590529680E0,2.939881802E0,1.110150051E1
6.748247620E-1,2.286342144E0,2.741277456E0,1.091695404E1
6.772200740E-1,1.754836321E0,2.468196630E0,1.076859951E1
6.796153870E-1,1.187438250E0,2.169093609E0,1.046710396E1
6.820114810E-1,7.181459069E-1,1.879263043E0,1.004806042E1
6.844076260E-1,2.536391914E-1,1.687837243E0,9.638588905E0
6.868028870E-1,-3.592225015E-1,1.584945917E0,9.229117393E0
6.891981990E-1,-1.005583763E0,1.544267893E0,9.030512810E0
6.915943450E-1,-1.642373681E0,1.549053550E0,9.059226990E0
6.939904910E-1,-2.099701881E0,1.537089467E0,9.099904060E0
6.963857510E-1,-2.300698996E0,1.608874083E0,9.217152596E0
6.987810640E-1,-2.319841623E0,1.706979871E0,9.416056633E0
7.011772100E-1,-2.080559254E0,1.980060697E0,9.451948166E0
7.035733030E-1,-1.644766450E0,2.329412937E0,9.430413246E0
7.059686160E-1,-1.153938770E0,2.681456804E0,9.349057198E0
7.083639280E-1,-6.966105103E-1,2.942274570E0,9.277272224E0
7.107600740E-1,-2.153540403E-1,3.179463148E0,9.277272224E0
7.131561680E-1,1.674975902E-1,3.380460262E0,9.313164711E0
7.155514810E-1,5.075774789E-1,3.502494097E0,9.384949684E0
7.179467930E-1,8.452646136E-1,3.576671600E0,9.459127426E0
7.203429390E-1,1.153938770E0,3.605385542E0,9.521340370E0
7.227390330E-1,1.503589988E0,3.593421459E0,9.585947037E0
7.251343450E-1,1.840977907E0,3.540779352E0,9.585947037E0
7.275296580E-1,2.169093609E0,3.440280676E0,9.583553314E0
7.299257510E-1,2.494517565E0,3.361317635E0,9.571589470E0
7.323218970E-1,2.731706142E0,3.253640652E0,9.516554832E0
7.347171580E-1,2.963809967E0,3.138785124E0,9.547661781E0
7.371124700E-1,3.172284603E0,3.006880760E0,9.545269012E0
7.395086160E-1,3.308675528E0,2.853740215E0,9.406484604E0
7.419047100E-1,3.351746321E0,2.717349291E0,9.327521324E0
7.443000220E-1,3.323032379E0,2.566601276E0,9.202795982E0
7.466953350E-1,3.275176048E0,2.444268227E0,9.049654961E0
7.490914810E-1,3.205784082E0,2.336591244E0,8.896514893E0
7.514875740E-1,3.241676569E0,2.367697954E0,8.812766075E0
7.538828870E-1,3.370888948E0,2.520838737E0,8.774480820E0
7.562781990E-1,3.564707518E0,2.774776936E0,8.692825317E0
7.586743450E-1,3.833002806E0,3.047558784E0,8.625826836E0
7.610704390E-1,3.935894251E0,3.212962627E0,8.499007225E0
7.634657510E-1,4.053142548E0,3.378067255E0,8.317152023E0
7.658610640E-1,4.129712582E0,3.492922783E0,8.115856171E0
7.682571580E-1,4.213760853E0,3.605385542E0,7.938787460E0
7.706533030E-1,4.297509670E0,3.667897940E0,7.828717709E0
7.730486160E-1,4.517649174E0,3.708575964E0,7.764111042E0
7.754439280E-1,4.785944462E0,3.734897137E0,7.706683636E0
7.778400220E-1,5.128118038E0,3.758825302E0,7.752147198E0
7.802361680E-1,5.403591633E0,3.770789385E0,7.792825222E0
7.826314280E-1,5.717051506E0,3.809074640E0,7.838288784E0
7.850267410E-1,5.918347836E0,3.840181351E0,7.864609718E0
7.874228870E-1,6.081059456E0,3.859323740E0,7.874181271E0
7.898190330E-1,6.140880108E0,3.868895054E0,7.883752346E0
7.922142930E-1,6.181558132E0,3.768396616E0,7.816753387E0
7.946096060E-1,6.203093529E0,3.653541088E0,7.713861942E0
7.970057510E-1,6.162415504E0,3.552743435E0,7.589435101E0
7.994018450E-1,6.004489422E0,3.485744476E0,7.424031258E0
8.017971580E-1,5.769693375E0,3.468994617E0,7.275676250E0
8.041924700E-1,5.444269657E0,3.495315790E0,7.144071102E0
8.065886160E-1,4.974977493E0,3.483351469E0,6.787241459E0
8.089847100E-1,4.295116425E0,3.433102369E0,6.059524059E0
8.113800220E-1,3.346960783E0,3.382853031E0,5.027619362E0
8.137753350E-1,2.401197433E0,3.296711445E0,3.859323740E0
8.161714810E-1,2.501696110E0,2.985345364E0,3.978965044E0
8.185675740E-1,4.002892971E0,2.451446772E0,4.905585289E0
8.209628870E-1,4.742574692E0,2.193022013E0,5.324329376E0
8.233581990E-1,4.742574692E0,1.943869352E0,6.037988663E0
8.257542930E-1,4.486542225E0,1.730908036E0,6.346662998E0
8.281504390E-1,4.323830605E0,1.582553029E0,6.138487339E0
8.305457510E-1,4.268795490E0,1.498804331E0,5.798407555E0
8.329410640E-1,4.319045067E0,1.544267893E0,5.561518192E0
8.353371580E-1,4.469792843E0,1.687837243E0,5.494519234E0
