"Time (s)","X (rad/s)","Y (rad/s)","Z (rad/s)"
4.951408331E-2,3.865876794E-1,4.053216279E-1,2.364771217E-1
5.950708326E-2,3.081181943E-1,4.072681963E-1,2.564298511E-1
6.950008334E-2,2.557263672E-1,3.891097009E-1,2.864955962E-1
7.949308329E-2,2.451218814E-1,3.949781954E-1,3.306315839E-1
8.948708326E-2,2.915511727E-1,4.114439785E-1,3.821775913E-1
9.948008333E-2,3.596150577E-1,4.072244763E-1,4.594417214E-1
1.094730833E-1,4.161012471E-1,3.695836067E-1,5.377815366E-1
1.194660834E-1,4.627740979E-1,3.316767812E-1,6.144600511E-1
1.294590833E-1,4.975701869E-1,3.224867284E-1,6.835491061E-1
1.394520833E-1,5.250877142E-1,3.635408878E-1,7.343021035E-1
1.494450833E-1,5.606273413E-1,4.096455574E-1,7.742670774E-1
1.594390833E-1,6.019326448E-1,4.258274138E-1,8.127192259E-1
1.694320833E-1,6.361934543E-1,4.594833851E-1,8.394158483E-1
1.794250833E-1,6.407288313E-1,5.336120129E-1,8.504146934E-1
1.894180833E-1,6.109797359E-1,6.509642005E-1,8.535268903E-1
1.994110834E-1,5.578757524E-1,7.478275895E-1,8.373011947E-1
2.094040833E-1,5.149576068E-1,8.001896143E-1,8.083702326E-1
2.193970833E-1,4.563786685E-1,7.973234653E-1,7.862547636E-1
2.293900833E-1,3.781395257E-1,7.264953256E-1,7.667024136E-1
2.393840833E-1,3.071902692E-1,6.656180620E-1,7.211576104E-1
2.493770833E-1,3.052397668E-1,6.386046410E-1,6.183449626E-1
2.593700833E-1,3.617165685E-1,5.764119029E-1,4.829961956E-1
2.693630833E-1,4.082539678E-1,5.174601674E-1,3.554555476E-1
2.793560834E-1,4.283452034E-1,4.473943710E-1,2.459630370E-1
2.893490833E-1,3.816195130E-1,3.265366554E-1,1.588499695E-1
2.993420833E-1,2.759901583E-1,2.678777874E-1,5.533723161E-2
3.093360834E-1,1.518628746E-1,2.926859260E-1,-3.428133577E-2
3.193290833E-1,-3.866467252E-2,3.686808944E-1,-1.161822975E-1
3.293220833E-1,-2.879690528E-1,3.709251285E-1,-1.943634003E-1
3.393150833E-1,-4.673207402E-1,3.054749668E-1,-2.584419847E-1
3.493080833E-1,-5.008525848E-1,1.637668312E-1,-3.349034786E-1
3.593010833E-1,-4.999133348E-1,-3.289569914E-2,-4.275213182E-1
3.692940833E-1,-6.148332953E-1,-8.477087319E-2,-5.400140882E-1
3.792870833E-1,-7.971194983E-1,2.574831992E-2,-5.963208675E-1
3.892810834E-1,-9.966816306E-1,1.645389646E-1,-6.146777868E-1
3.992740833E-1,-1.156217337E0,1.986178458E-1,-6.291891932E-1
4.092670833E-1,-1.268645883E0,1.026404500E-1,-6.097643375E-1
4.192600833E-1,-1.359751105E0,-2.216044813E-2,-6.172814369E-1
4.292530833E-1,-1.466025949E0,-7.879656553E-2,-6.780121326E-1
4.392460833E-1,-1.592061639E0,-1.212821342E-3,-7.961753011E-1
4.492390833E-1,-1.682963610E0,1.506392956E-1,-8.660840392E-1
4.592320833E-1,-1.728438139E0,1.359588951E-1,-9.094088674E-1
4.692260833E-1,-1.764410973E0,-1.501756608E-1,-9.270893335E-1
4.792190833E-1,-1.762495279E0,-5.348541737E-1,-8.750997186E-1
4.892120833E-1,-1.718550444E0,-8.320001364E-1,-7.733224630E-1
4.992050834E-1,-1.616103649E0,-9.066311717E-1,-7.307754159E-1
5.091980833E-1,-1.512352228E0,-7.881583571E-1,-7.234778404E-1
5.191910833E-1,-1.430728316E0,-5.501714945E-1,-7.090044022E-1
5.291840833E-1,-1.395040631E0,-3.567339182E-1,-7.471818924E-1
5.391770833E-1,-1.385115504E0,-2.572033405E-1,-7.840383649E-1
5.491710833E-1,-1.431880593E0,-1.862378418E-1,-7.732757330E-1
5.591640833E-1,-1.489353895E0,2.321392484E-2,-7.484480739E-1
5.691570833E-1,-1.472465634E0,1.391991228E-1,-6.924130321E-1
5.791500834E-1,-1.447959423E0,9.514214844E-2,-7.059007883E-1
5.891430833E-1,-1.341858268E0,1.505835652E-1,-6.804420352E-1
5.991360833E-1,-1.212721467E0,2.173144072E-1,-6.739252806E-1
6.091290833E-1,-1.120109439E0,2.583611906E-1,-6.880498528E-1
6.191230833E-1,-9.394431710E-1,2.415695228E-2,-7.113670707E-1
6.291160833E-1,-7.355701923E-1,-2.006231695E-1,-8.111658692E-1
6.391090833E-1,-5.833965540E-1,-2.904213369E-1,-9.194654226E-1
6.491020833E-1,-5.343584418E-1,-3.802577257E-1,-9.198870063E-1
6.590950834E-1,-4.521560073E-1,-6.284441948E-1,-9.250792265E-1
6.690880833E-1,-3.582055569E-1,-9.228308201E-1,-8.954760432E-1
6.790810833E-1,-2.717608511E-1,-1.027401924E0,-8.376225829E-1
6.890740833E-1,-1.793265194E-1,-1.111388683E0,-7.704086304E-1
6.990680833E-1,-6.684110314E-2,-1.197094560E0,-6.755951047E-1
7.090610833E-1,4.555201530E-2,-1.143378615E0,-5.906208158E-1
7.190540833E-1,1.742214561E-1,-1.075092435E0,-4.937500358E-1
7.290470833E-1,3.092240095E-1,-9.532666206E-1,-3.858451247E-1
7.390400833E-1,4.320099056E-1,-8.934091330E-1,-2.673977911E-1
7.490330833E-1,5.277931690E-1,-8.097991943E-1,-1.554414183E-1
7.590217083E-1,6.073809862E-1,-7.587913275E-1,-6.514400989E-2
7.690157084E-1,6.679239273E-1,-7.135628462E-1,6.675853394E-3
7.790087083E-1,7.220649719E-1,-6.765124202E-1,5.036104843E-2
7.890017083E-1,7.616411448E-1,-6.452202797E-1,7.189856470E-2
7.989947083E-1,7.975782156E-1,-6.265211701E-1,7.862337679E-2
8.089877083E-1,8.364063501E-1,-5.734947324E-1,8.891889453E-2
8.189807083E-1,8.647112250E-1,-5.478231907E-1,1.064956263E-1
8.289737083E-1,8.709997535E-1,-5.179291964E-1,1.203195602E-1
8.389667083E-1,8.738139272E-1,-4.394287169E-1,1.346209943E-1
8.489607084E-1,8.778571486E-1,-2.860322297E-1,1.543741971E-1
8.589537083E-1,8.739083409E-1,-1.469872594E-1,1.823574603E-1
8.689467083E-1,8.494259119E-1,-8.175873756E-2,2.143462896E-1
8.789397083E-1,8.085744977E-1,-6.625746191E-2,2.420595884E-1
8.889327083E-1,7.431065440E-1,-1.044059098E-1,2.520672083E-1
8.989257083E-1,6.608241200E-1,-1.715029925E-1,2.471238077E-1
9.089187083E-1,5.638557673E-1,-2.868956327E-1,2.191917747E-1
9.189117083E-1,4.613710642E-1,-4.019314945E-1,1.747487783E-1
9.289057084E-1,3.527455330E-1,-4.781586230E-1,1.123775467E-1
9.388987083E-1,2.549227476E-1,-5.660314560E-1,4.398660734E-2
9.488917083E-1,1.955217570E-1,-6.743600965E-1,-7.449155208E-3
9.588847084E-1,1.437504888E-1,-7.970532179E-1,-4.714382812E-2
9.688777083E-1,1.134474427E-1,-9.061993957E-1,-8.275321871E-2
9.788707083E-1,9.755750746E-2,-9.414827824E-1,-1.157994270E-1
9.888637083E-1,1.145157218E-1,-8.994450569E-1,-1.531651765E-1
9.988567083E-1,1.487616450E-1,-7.955998778E-1,-1.814325750E-1
1.008850708E0,1.996096373E-1,-6.104555726E-1,-2.002776414E-1
1.018843708E0,2.667044997E-1,-4.798824489E-1,-1.874932647E-1
1.028836708E0,3.288661540E-1,-4.354316294E-1,-1.525904089E-1
1.038829708E0,3.692588806E-1,-4.385030866E-1,-1.206339300E-1
1.048822708E0,3.719044626E-1,-3.986518085E-1,-1.004631445E-1
1.058815708E0,3.809596598E-1,-1.906954497E-1,-1.110911965E-1
1.068808708E0,3.824896514E-1,1.348147392E-1,-9.492500126E-2
1.078801708E0,2.960693836E-1,5.178055763E-1,-4.878581315E-2
1.088795708E0,8.045371622E-2,8.043864965E-1,-2.260854095E-2
1.098788708E0,-2.331294268E-1,8.533076048E-1,-1.032194793E-1
1.108781708E0,-4.245470762E-1,1.100907922E0,-1.997510791E-1
1.118774708E0,-2.870063186E-1,1.664267421E0,-2.270993739E-1
1.128767708E0,7.204538211E-3,2.153884411E0,-1.541130543E-1
1.138760708E0,2.680476904E-1,2.209593534E0,4.040077329E-4
1.148753708E0,4.449897110E-1,1.769114971E0,1.558082402E-1
1.158747708E0,5.356630087E-1,1.055067539E0,3.368872702E-1
1.168740708E0,4.913501740E-1,3.846974075E-1,6.535286307E-1
1.178733708E0,4.357717335E-1,4.658451676E-2,9.713057876E-1
1.188726708E0,5.536051989E-1,-3.488770872E-2,1.093700171E0
1.198719708E0,7.549741268E-1,2.688855864E-2,1.012338281E0
1.208712708E0,9.602982402E-1,3.548182249E-1,6.729820967E-1
1.218705708E0,1.041942954E0,6.856310964E-1,3.512878418E-1
1.228698708E0,1.069109321E0,7.801836729E-1,2.396939546E-1
1.238692708E0,1.078877568E0,6.374099851E-1,2.246540636E-1
1.248685708E0,1.037124276E0,4.072039425E-1,2.752730548E-1
1.258678708E0,9.528630376E-1,5.324001610E-2,3.374111950E-1
1.268671708E0,8.028641939E-1,-1.718567871E-2,4.053848982E-1
1.278664708E0,7.279709578E-1,-1.968113706E-2,4.184957445E-1
1.288657708E0,6.951621771E-1,1.173283756E-1,3.993881047E-1
1.298650708E0,6.885560155E-1,2.815705240E-1,3.308744431E-1
1.308643708E0,6.674318314E-1,3.056231141E-1,2.645329833E-1
1.318637708E0,6.583927870E-1,2.637209296E-1,2.037740201E-1
1.328630708E0,6.211881638E-1,2.011206597E-1,2.047327459E-1
1.338623708E0,6.442763805E-1,1.828834414E-1,1.808830500E-1
1.348616708E0,6.785994768E-1,1.975414753E-1,1.705025882E-1
1.358609708E0,6.934239864E-1,2.325983495E-1,1.766601354E-1
1.368602708E0,7.123271227E-1,2.249809057E-1,1.912185699E-1
1.378595708E0,6.926823854E-1,2.665390372E-1,2.299534529E-1
1.388588708E0,6.714987755E-1,3.245956898E-1,2.813205123E-1
1.398582708E0,6.466416717E-1,3.714749217E-1,3.598785996E-1
1.408575708E0,6.036912799E-1,3.829776645E-1,4.497882724E-1
1.418568708E0,5.709750652E-1,4.094666541E-1,4.883670211E-1
1.428561708E0,5.441088676E-1,4.983853400E-1,5.026865602E-1
1.438554708E0,5.168309808E-1,5.938512087E-1,5.301449895E-1
1.448547708E0,4.805392921E-1,6.582943797E-1,5.880178809E-1
1.458540708E0,4.370537102E-1,6.487833858E-1,6.603645682E-1
1.468533708E0,3.978556991E-1,6.296675205E-1,7.358228564E-1
1.478527708E0,4.109232128E-1,6.141023040E-1,8.048349023E-1
1.488520708E0,4.337603450E-1,6.061125398E-1,8.460994959E-1
1.498513708E0,4.716864824E-1,6.317151785E-1,8.664093018E-1
1.508506708E0,4.954136014E-1,6.500145793E-1,8.758158684E-1
1.518499708E0,5.068876147E-1,6.707534194E-1,8.820924163E-1
1.528492708E0,5.402362347E-1,6.710453033E-1,8.873918056E-1
1.538485708E0,5.213787556E-1,7.080951333E-1,8.897040486E-1
1.548479708E0,5.024136305E-1,6.401318312E-1,8.536547422E-1
1.558472708E0,5.181468129E-1,5.738413930E-1,7.673662901E-1
1.568465708E0,5.047268867E-1,6.358847618E-1,6.555819511E-1
1.578458708E0,4.500058591E-1,6.756681204E-1,5.414700508E-1
1.588451708E0,3.344659507E-1,6.452441812E-1,4.203575253E-1
1.598444708E0,2.181089222E-1,5.338149667E-1,3.183449507E-1
1.608437708E0,1.299087554E-1,4.308148324E-1,2.027299255E-1
1.618430708E0,9.451809525E-2,3.978309035E-1,7.644528896E-2
1.628424708E0,6.422223896E-2,4.207189083E-1,-8.818440139E-2
1.638417708E0,-2.288291790E-2,4.289648235E-1,-2.336893082E-1
1.648410708E0,-1.538039148E-1,3.938806057E-1,-3.289788067E-1
1.658403708E0,-2.790164948E-1,2.971740067E-1,-3.847892582E-1
1.668396708E0,-4.165786207E-1,2.903778851E-1,-4.134528339E-1
1.678389708E0,-5.965712070E-1,2.036240101E-1,-3.940291405E-1
1.688382708E0,-8.363835216E-1,-1.121382117E-1,-3.605931699E-1
1.698375708E0,-1.001265764E0,-5.147556067E-1,-4.448325038E-1
1.708369708E0,-1.060276389E0,-8.384625316E-1,-6.474558711E-1
1.718362708E0,-1.179482698E0,-8.006249666E-1,-8.224632740E-1
1.728355708E0,-1.419874549E0,-4.145489037E-1,-9.199120998E-1
1.738348708E0,-1.709472060E0,-4.948825389E-2,-9.365544915E-1
1.748341708E0,-1.899946690E0,3.302259743E-2,-9.428749681E-1
1.758335250E0,-1.990674019E0,-2.674045973E-3,-9.654618502E-1
1.768328250E0,-2.023802996E0,8.348800242E-2,-9.706882834E-1
1.778321250E0,-1.945157409E0,2.558628321E-1,-9.479025006E-1
1.788315250E0,-1.796082973E0,2.927044928E-1,-9.026639462E-1
1.798308250E0,-1.700880766E0,2.461814731E-1,-8.720479608E-1
1.808301250E0,-1.667314529E0,1.092345491E-1,-8.085786700E-1
1.818294250E0,-1.635996222E0,-3.900293633E-2,-7.346246839E-1
1.828287250E0,-1.593634725E0,-2.577443123E-1,-6.857445240E-1
1.838280250E0,-1.589355826E0,-3.941985965E-1,-6.903344989E-1
1.848273250E0,-1.549263000E0,-5.914655924E-1,-6.909520626E-1
1.858266250E0,-1.431662560E0,-8.482307792E-1,-7.160951495E-1
1.868260250E0,-1.356401920E0,-9.756494164E-1,-7.034661770E-1
1.878253250E0,-1.345410109E0,-9.125769138E-1,-7.250531912E-1
1.888246250E0,-1.331605911E0,-6.905398369E-1,-7.630013227E-1
1.898239250E0,-1.370243788E0,-4.487459064E-1,-8.483481407E-1
1.908232250E0,-1.333809137E0,-2.864390016E-1,-9.087715149E-1
1.918225250E0,-1.253608704E0,-2.162991613E-1,-9.199900031E-1
1.928218250E0,-1.188449860E0,-2.620083094E-1,-9.356243610E-1
1.938211250E0,-1.145732403E0,-3.149760365E-1,-9.451581240E-1
1.948205250E0,-1.060316563E0,-3.095239997E-1,-9.271221161E-1
1.958198250E0,-9.304236770E-1,-4.687520564E-1,-9.286916256E-1
1.968191250E0,-8.687134385E-1,-5.209199190E-1,-9.459728599E-1
1.978184250E0,-8.854313493E-1,-5.486633778E-1,-9.099746346E-1
1.988177250E0,-7.554070354E-1,-8.933349848E-1,-8.934683204E-1
1.998170250E0,-6.549946666E-1,-1.103827477E0,-8.227179050E-1
2.008163250E0,-5.610013604E-1,-1.107983351E0,-7.312254906E-1
2.018156250E0,-4.606189430E-1,-1.050938845E0,-6.821853518E-1
2.028150250E0,-3.455000818E-1,-1.040613770E0,-6.211717725E-1
2.038143250E0,-1.809328347E-1,-1.004176617E0,-5.348437428E-1
2.048136250E0,-2.991456166E-2,-9.617463946E-1,-4.336068630E-1
2.058129250E0,1.010334566E-1,-9.252737164E-1,-3.308863938E-1
2.068122250E0,2.135099471E-1,-8.703675866E-1,-2.461946905E-1
2.078115250E0,3.459850252E-1,-7.831479311E-1,-1.874781996E-1
2.088108250E0,4.698989689E-1,-6.427234411E-1,-1.280090064E-1
2.098101250E0,5.951679945E-1,-4.837201536E-1,-6.063697487E-2
2.108095250E0,7.138352394E-1,-3.231629729E-1,8.795095608E-3
2.118088250E0,8.219804764E-1,-1.775486767E-1,6.669252366E-2
2.128081250E0,9.149392247E-1,-5.541983619E-2,1.206513643E-1
2.138074250E0,9.858663678E-1,2.434365451E-2,1.609229296E-1
2.148067250E0,1.055995226E0,7.345154136E-2,1.973208785E-1
2.158060250E0,1.129013658E0,9.405957162E-2,2.344619185E-1
2.168053250E0,1.197022557E0,7.593969256E-2,2.732564807E-1
2.178047250E0,1.242807150E0,-1.917269453E-2,3.089476824E-1
2.188040250E0,1.232872486E0,-1.474584937E-1,3.313760161E-1
2.198033250E0,1.184637547E0,-2.329865396E-1,3.432462513E-1
2.208026250E0,1.096501350E0,-2.731198668E-1,3.463419080E-1
2.218019250E0,9.726236463E-1,-3.144610822E-1,3.314078450E-1
2.228012250E0,8.464273810E-1,-3.797679245E-1,2.869754136E-1
2.238005250E0,7.315886021E-1,-4.419330955E-1,2.253471911E-1
2.247998250E0,6.313757300E-1,-5.160272717E-1,1.582009047E-1
2.257991250E0,5.235754251E-1,-6.076422334E-1,8.824655414E-2
2.267985250E0,4.072232246E-1,-6.860100031E-1,5.627569277E-3
2.277978250E0,2.966790795E-1,-7.194492221E-1,-7.468528301E-2
2.287971250E0,2.152526528E-1,-7.090386748E-1,-1.363084316E-1
2.297964250E0,1.610862613E-1,-7.134111524E-1,-1.708270460E-1
2.307957250E0,1.341121793E-1,-7.319995165E-1,-1.872896403E-1
2.317950250E0,1.366420239E-1,-7.499468327E-1,-1.753714085E-1
2.327943250E0,1.764107347E-1,-7.149105668E-1,-1.284307986E-1
2.337936250E0,2.487960756E-1,-6.983911991E-1,-8.585733175E-2
2.347930250E0,3.241827190E-1,-7.155989408E-1,-5.455134436E-2
2.357923250E0,3.976508975E-1,-6.688457131E-1,-2.630209364E-2
2.367916250E0,4.520478249E-1,-5.057516098E-1,3.497139551E-5
2.377909250E0,5.360906124E-1,-2.000664473E-1,5.192632228E-2
2.387902250E0,6.318200827E-1,1.922163814E-1,1.398612410E-1
2.397895250E0,5.595964193E-1,5.261868238E-1,2.370600700E-1
2.407888250E0,2.347503901E-1,6.591965556E-1,1.905831099E-1
2.417882250E0,-1.915593147E-1,5.645752549E-1,-3.594401106E-2
2.427875250E0,-4.369400144E-1,8.738728762E-1,-2.295052260E-1
2.437868250E0,-2.158048451E-1,1.552658796E0,-2.651105523E-1
2.447861250E0,2.083725333E-1,2.075807333E0,-1.798459738E-1
2.457854250E0,4.978121519E-1,2.094892263E0,-4.780773446E-2
2.467847250E0,7.080003023E-1,1.614546180E0,1.172749698E-1
2.477840250E0,7.349290252E-1,9.835777283E-1,4.082653224E-1
2.487833250E0,6.615663767E-1,3.358148634E-1,7.662743926E-1
2.497826250E0,5.597336888E-1,-1.687145233E-1,9.739093781E-1
2.507820250E0,5.815284848E-1,-3.238683939E-1,1.016580939E0
2.517813250E0,7.393459678E-1,-9.744321555E-2,8.044753075E-1
2.527806250E0,8.841529489E-1,2.609708607E-1,4.593562484E-1
2.537799250E0,9.623339772E-1,5.655291080E-1,2.564546466E-1
2.547792250E0,1.005515337E0,5.407510400E-1,2.049363256E-1
2.557785250E0,1.045574903E0,3.549329937E-1,2.081982195E-1
2.567778250E0,1.068324447E0,1.413552165E-1,2.666178644E-1
2.577771250E0,1.003564715E0,-8.367029019E-3,3.194082677E-1
2.587765250E0,8.643274307E-1,1.424720418E-2,3.483379185E-1
2.597758250E0,7.632800937E-1,6.151960045E-2,3.585647941E-1
2.607751250E0,7.100930214E-1,1.997421831E-1,3.140175641E-1
2.617744250E0,6.737097502E-1,3.702647388E-1,2.271706015E-1
2.627737250E0,6.000096798E-1,5.303558707E-1,1.931103766E-1
2.637730250E0,5.484085679E-1,5.959023833E-1,1.457746625E-1
2.647723250E0,6.106492877E-1,6.042436957E-1,1.549708247E-1
2.657716250E0,6.689288616E-1,7.132284641E-1,1.725426167E-1
2.667710250E0,7.763085365E-1,6.924520731E-1,2.416042536E-1
2.677703250E0,7.864618301E-1,6.167966723E-1,3.335031569E-1
2.687696250E0,7.236464024E-1,5.423027277E-1,4.033152461E-1
2.697689250E0,6.989955902E-1,5.154314041E-1,4.636950791E-1
2.707682250E0,6.490352154E-1,5.275831223E-1,4.816469252E-1
2.717675250E0,5.807719231E-1,5.626720190E-1,4.634485543E-1
2.727668250E0,5.284796953E-1,6.033728719E-1,4.212704897E-1
2.737661250E0,4.918234944E-1,6.274057627E-1,4.020378292E-1
2.747655250E0,4.473811686E-1,6.627405882E-1,4.138518572E-1
2.757648250E0,4.190296531E-1,6.576573849E-1,4.409380853E-1
2.767640500E0,3.979786932E-1,6.038487554E-1,4.931727946E-1
2.777633500E0,3.640507162E-1,5.297151208E-1,5.423637033E-1
2.787626500E0,3.376545310E-1,4.917322993E-1,5.870190859E-1
2.797619500E0,3.026265502E-1,4.794205725E-1,6.196926236E-1
2.807612500E0,2.594508529E-1,4.752061367E-1,6.503855586E-1
2.817605500E0,2.350828350E-1,4.983201325E-1,6.835458279E-1
2.827599500E0,2.459288239E-1,5.054701567E-1,7.015640140E-1
2.837592500E0,3.031896353E-1,5.011134148E-1,6.951152086E-1
2.847585500E0,3.374144435E-1,5.512692928E-1,7.003285885E-1
2.857578500E0,3.606320620E-1,5.731698871E-1,6.832839847E-1
2.867571500E0,3.906900883E-1,5.562015772E-1,6.544885039E-1
2.877564500E0,3.841271996E-1,5.244138241E-1,6.129721999E-1
2.887557500E0,3.692688942E-1,4.903618991E-1,5.452435017E-1
2.897550500E0,3.450725675E-1,4.752984047E-1,4.590970874E-1
2.907544500E0,2.934450805E-1,4.760816395E-1,3.673548996E-1
2.917537500E0,1.899937242E-1,4.955048263E-1,2.693273723E-1
2.927530500E0,7.597927004E-2,5.199840665E-1,1.701358110E-1
2.937523500E0,-1.100180671E-3,5.382666588E-1,5.974347144E-2
2.947516500E0,-5.168106407E-2,5.046918988E-1,-5.024534464E-2
2.957509500E0,-7.532410324E-2,4.427082241E-1,-1.776268929E-1
2.967502500E0,-1.073233187E-1,4.124062359E-1,-3.337808251E-1
2.977495500E0,-1.726180613E-1,3.739488423E-1,-4.462090135E-1
2.987489500E0,-2.972284257E-1,2.892209291E-1,-4.962841570E-1
2.997482500E0,-4.993158579E-1,1.920564622E-1,-5.357329845E-1
3.007475500E0,-7.434470654E-1,9.540767968E-2,-5.981953144E-1
3.017468500E0,-9.573628306E-1,-8.443591744E-2,-7.083679438E-1
3.027461500E0,-9.767956138E-1,-3.656119108E-1,-8.383086324E-1
3.037454500E0,-9.207209349E-1,-5.614455938E-1,-9.320202470E-1
3.047447500E0,-1.080935240E0,-5.874122381E-1,-9.773752093E-1
3.057440500E0,-1.373877406E0,-5.383040309E-1,-9.744926095E-1
3.067434500E0,-1.656399965E0,-3.779138327E-1,-9.850049019E-1
3.077427500E0,-1.882525921E0,-1.464242488E-1,-1.007079005E0
3.087420500E0,-2.026728630E0,9.827844054E-2,-1.018313646E0
3.097413500E0,-2.075833321E0,3.245399594E-1,-1.019721270E0
3.107406500E0,-2.048237801E0,4.167889357E-1,-1.003496408E0
3.117399500E0,-2.000688791E0,1.315455735E-1,-9.783279300E-1
3.127392500E0,-1.950724244E0,-2.181101739E-1,-9.142168760E-1
3.137385500E0,-1.857956648E0,-1.954533905E-1,-8.396229148E-1
3.147379500E0,-1.720991611E0,-8.718258888E-2,-7.541564703E-1
3.157372500E0,-1.572742939E0,-1.939521581E-1,-6.933894753E-1
3.167365500E0,-1.398347974E0,-2.885505557E-1,-6.457977295E-1
3.177358500E0,-1.286655784E0,-3.557693660E-1,-6.795998812E-1
3.187351500E0,-1.288415551E0,-3.345596790E-1,-7.091361880E-1
3.197344500E0,-1.279649973E0,-2.883334160E-1,-7.229295969E-1
3.207337500E0,-1.268798113E0,-3.972457647E-1,-7.142612934E-1
3.217330500E0,-1.281260729E0,-4.903270602E-1,-7.239136696E-1
3.227324500E0,-1.267684817E0,-5.966864824E-1,-7.431510091E-1
3.237317500E0,-1.151873946E0,-6.381242871E-1,-7.463621497E-1
3.247310500E0,-1.015143275E0,-6.847280264E-1,-7.513899207E-1
3.257303500E0,-9.388871193E-1,-6.247095466E-1,-7.260484695E-1
3.267296500E0,-8.970528841E-1,-6.040902734E-1,-6.678895354E-1
3.277289500E0,-8.459701538E-1,-6.339169145E-1,-6.229150295E-1
3.287282500E0,-7.496034503E-1,-6.667755246E-1,-5.866172314E-1
3.297275500E0,-6.440863609E-1,-6.795828938E-1,-5.297715068E-1
3.307268500E0,-5.456839204E-1,-7.058741450E-1,-4.831315577E-1
3.317262500E0,-4.051132202E-1,-8.679669499E-1,-4.900396764E-1
3.327255500E0,-2.944394350E-1,-1.007012486E0,-5.155375600E-1
3.337248500E0,-2.026871741E-1,-1.060845256E0,-5.167691708E-1
