"Time (s)","X (rad/s)","Y (rad/s)","Z (rad/s)"
9.942250006E-3,9.881117940E-2,6.077149510E-2,-3.931295592E-3
1.986525001E-2,8.591375500E-2,4.529533535E-2,-3.436909616E-2
2.978924999E-2,7.984731346E-2,8.238408715E-3,-5.637636036E-2
3.971225000E-2,8.389770985E-2,1.300200447E-2,-7.912455499E-2
4.963625001E-2,1.011533365E-1,2.997678518E-2,-1.071588546E-1
5.955925002E-2,1.365328878E-1,6.447030604E-2,-1.254513115E-1
6.948224999E-2,1.779088974E-1,9.586573392E-2,-1.527468264E-1
7.940625001E-2,2.184813619E-1,1.423181742E-1,-1.937240958E-1
8.932925001E-2,2.776592970E-1,2.506968379E-1,-2.821478844E-1
9.925324999E-2,2.833411694E-1,3.093087673E-1,-3.434663713E-1
1.091762500E-1,2.808130383E-1,3.636115491E-1,-4.017320871E-1
1.190992500E-1,2.943267226E-1,4.147024155E-1,-4.677691758E-1
1.290232500E-1,3.100392222E-1,4.960293472E-1,-5.314630270E-1
1.389462500E-1,3.715896904E-1,6.741884351E-1,-6.222158074E-1
1.488702500E-1,4.995171130E-1,9.841682315E-1,-7.706146836E-1
1.587932500E-1,5.848870873E-1,1.292405128E0,-9.338065386E-1
1.687172500E-1,6.142082214E-1,1.440176129E0,-1.020932436E0
1.786402500E-1,6.713652611E-1,1.554442286E0,-1.033132911E0
1.885632500E-1,7.058139443E-1,1.620887041E0,-9.637776613E-1
1.984872500E-1,7.070368528E-1,1.621199012E0,-8.713262677E-1
2.084102500E-1,7.497269511E-1,1.686506033E0,-8.121415973E-1
2.183342500E-1,8.204485178E-1,1.908651471E0,-8.780231476E-1
2.282572500E-1,9.099009037E-1,2.200342178E0,-9.977384806E-1
2.381812500E-1,1.005586386E0,2.429789066E0,-1.120954514E0
2.481042500E-1,1.100574851E0,2.473679543E0,-1.083830714E0
2.580272500E-1,1.168601871E0,2.430083275E0,-9.888016582E-1
2.679512500E-1,1.264702320E0,2.439970970E0,-9.682638049E-1
2.778742500E-1,1.348693848E0,2.560338974E0,-1.045427442E0
2.877982500E-1,1.415410161E0,2.765288591E0,-1.187607050E0
2.977212500E-1,1.484912276E0,2.869230747E0,-1.305441856E0
3.076442500E-1,1.532837510E0,2.847587585E0,-1.379935503E0
3.175682500E-1,1.565113664E0,2.673343897E0,-1.401846409E0
3.274912500E-1,1.622330666E0,2.507594109E0,-1.404587507E0
3.374152500E-1,1.739651680E0,2.506512880E0,-1.454956174E0
3.473382500E-1,1.866619587E0,2.610512733E0,-1.559569836E0
3.572622500E-1,2.021268129E0,2.764701366E0,-1.678169131E0
3.671852500E-1,2.154678106E0,2.878044128E0,-1.591186404E0
3.771082500E-1,2.222322941E0,2.868112803E0,-1.366116524E0
3.870322500E-1,2.253567457E0,2.742167711E0,-1.124240756E0
3.969552500E-1,2.278151989E0,2.657779217E0,-9.222069383E-1
4.068792500E-1,2.375298500E0,2.691994190E0,-8.257603049E-1
4.168022500E-1,2.541917562E0,2.840901136E0,-8.220896721E-1
4.267252500E-1,2.723986387E0,2.957481384E0,-8.298167586E-1
4.366491250E-1,2.846610308E0,2.651796579E0,-8.810437322E-1
4.465721250E-1,2.897890568E0,1.612079024E0,-1.129950643E0
4.564961250E-1,2.762539148E0,5.112736821E-1,-1.499501705E0
4.664191250E-1,2.459156990E0,-3.087199032E-1,-1.727703333E0
4.763431250E-1,2.136763334E0,-6.137972474E-1,-1.729690313E0
4.862661250E-1,1.884802222E0,-5.046086311E-1,-1.346039534E0
4.961891250E-1,1.760042429E0,-2.856749594E-1,-9.072837830E-1
5.061131250E-1,1.660786271E0,7.272306830E-2,-6.148158312E-1
5.160361250E-1,1.658980131E0,8.425230980E-1,-4.988950789E-1
5.259601250E-1,1.652299523E0,1.156408548E0,-3.066299260E-1
5.358831250E-1,1.556968808E0,1.328260422E0,-1.214499399E-1
5.458061250E-1,1.415114522E0,1.540405631E0,-4.872442409E-2
5.557301250E-1,1.286295295E0,1.567516804E0,-8.841004968E-2
5.656531250E-1,1.060152888E0,1.462512612E0,-4.946158454E-2
5.755771250E-1,7.860739827E-1,1.494990468E0,-3.044714965E-2
5.855001250E-1,4.197901189E-1,1.541543126E0,-3.902005777E-2
5.954241250E-1,7.005581260E-2,1.314571500E0,-7.387311757E-2
6.053471250E-1,-2.128392011E-1,8.316983581E-1,-4.613181204E-2
6.152701250E-1,-4.546491504E-1,4.644037485E-1,-7.670436800E-2
6.251941250E-1,-5.375653505E-1,1.931138337E-1,-1.401261836E-1
6.351171250E-1,-5.055229664E-1,-5.660526920E-3,-2.182340324E-1
6.450411250E-1,-4.575864971E-1,1.071782559E-1,-3.639756739E-1
6.549641250E-1,-2.939317822E-1,2.786698341E-1,-5.102369785E-1
6.648871250E-1,-1.087489575E-1,3.929997683E-1,-5.576598644E-1
6.748111250E-1,7.498971373E-2,5.544810891E-1,-5.053225756E-1
6.847341250E-1,1.981870383E-1,7.094733715E-1,-4.506406784E-1
6.946581250E-1,2.966494262E-1,6.989946365E-1,-3.673979640E-1
7.045811250E-1,3.569402099E-1,3.998130560E-1,-1.707526296E-1
7.145051250E-1,5.410815477E-1,1.628276557E-1,1.097128689E-1
7.244281250E-1,6.219927669E-1,8.361648768E-3,3.376310766E-1
7.343511250E-1,7.333526015E-1,-1.620665491E-1,4.511659145E-1
7.442751250E-1,8.619320393E-1,-1.028777361E-1,4.248518050E-1
7.541981250E-1,9.300525188E-1,9.122915566E-2,3.043975532E-1
7.641221250E-1,1.134917021E0,2.881226540E-1,2.093813866E-1
7.740451250E-1,1.339168191E0,4.651711881E-1,1.317119002E-1
7.839681250E-1,1.498603106E0,5.262497663E-1,1.173842475E-1
7.938921250E-1,1.567984343E0,5.249679685E-1,1.519025564E-1
8.038151250E-1,1.599061251E0,4.225823879E-1,1.994251460E-1
8.137391250E-1,1.632247090E0,1.919369102E-1,8.570443094E-2
8.236621250E-1,1.708137274E0,-1.645372808E-1,2.439818718E-2
8.335851250E-1,1.313362718E0,3.413996696E-1,-2.152775787E-2
8.435091250E-1,6.504725814E-1,6.434072852E-1,1.034354120E-1
8.534321250E-1,1.844076961E-1,5.387564898E-1,5.562644005E-1
8.633561250E-1,-2.021033317E-1,2.712703645E-1,1.034811616E0
8.732791250E-1,-3.360574245E-1,-5.598239303E-1,1.044408917E0
8.832031250E-1,-4.370520711E-1,-1.174151421E0,9.199751616E-1
8.931261250E-1,-4.055481851E-1,-1.328342557E0,9.061930180E-1
9.030491250E-1,-2.354993969E-1,-1.248806953E0,1.064782262E0
9.129731250E-1,-7.649215404E-4,-9.476702213E-1,1.384664655E0
9.228961250E-1,7.455522567E-2,-6.531196237E-1,1.519194126E0
9.328201250E-1,1.244335696E-1,-7.071873546E-1,1.568260193E0
9.427431250E-1,2.102780491E-1,-8.838081956E-1,1.614628911E0
9.526661250E-1,1.765027791E-1,-7.629736662E-1,1.700299859E0
9.625901250E-1,3.418383300E-1,-5.418614149E-1,1.888470650E0
9.725131250E-1,3.847967088E-1,-3.827492148E-2,1.903690577E0
9.824371250E-1,3.779450655E-1,3.507356644E-1,1.707860351E0
9.923601250E-1,5.118826032E-1,5.769869089E-1,1.550627589E0
1.002284125E0,5.963132381E-1,7.291216850E-1,1.547421694E0
1.012207125E0,6.726620793E-1,1.245412469E0,1.557042718E0
1.022130125E0,9.816079140E-1,8.274541497E-1,1.635060310E0
1.032054125E0,7.367068529E-1,7.009569407E-1,1.516043067E0
1.041977125E0,4.401773512E-1,1.177548528E0,1.490787148E0
1.051901125E0,2.841262519E-1,1.281758785E0,1.448358178E0
1.061824125E0,2.648443356E-2,1.180104375E0,1.257735610E0
1.071747125E0,-1.374685466E-1,9.925464392E-1,1.064757824E0
1.081671125E0,-2.087347209E-1,9.371988177E-1,9.997946024E-1
1.091594125E0,-2.170538902E-1,1.004372597E0,9.732335210E-1
1.101518125E0,-1.679052711E-1,1.076017857E0,9.711552262E-1
1.111441125E0,-1.362378895E-1,1.135843635E0,9.716655016E-1
1.121364125E0,-9.803606570E-2,1.191671252E0,1.020109296E0
1.131288125E0,-9.362027794E-2,1.157716751E0,1.116405249E0
1.141211125E0,-1.504708678E-1,1.060614705E0,1.195508957E0
1.151135125E0,-1.700256616E-1,1.299068332E0,1.300334215E0
1.161058125E0,-9.003517777E-2,1.663104057E0,1.383765340E0
1.170981125E0,7.005409151E-2,2.019112349E0,1.380675793E0
1.180905125E0,1.700352132E-1,2.114717007E0,1.398967266E0
1.190828125E0,9.896822274E-2,1.884865403E0,1.394622803E0
1.200752125E0,-5.000197887E-2,1.661577582E0,1.370671630E0
1.210675125E0,-1.858679354E-1,1.579573274E0,1.278263092E0
1.220598125E0,5.062772036E-1,5.897485018E-1,1.008958697E0
1.230522125E0,8.522593975E-1,9.285781980E-1,7.195090652E-1
1.240445125E0,1.109226227E0,8.964093328E-1,4.286098778E-1
1.250369125E0,1.210285544E0,7.860724330E-1,1.497209668E-1
1.260292125E0,1.187212229E0,6.783281565E-1,-6.717469543E-2
1.270216125E0,1.131104708E0,6.209655404E-1,-1.850989312E-1
1.280139125E0,1.043300748E0,5.185186267E-1,-2.618208826E-1
1.290062125E0,7.893252373E-1,2.266982496E-1,-3.853923380E-1
1.299986125E0,5.485231280E-1,2.038881183E-3,-5.722089410E-1
1.309909125E0,3.659099340E-1,-1.691594869E-1,-7.012444139E-1
1.319833125E0,3.224804401E-1,-3.075248599E-1,-7.170749903E-1
1.329756125E0,3.853142560E-1,-3.853504360E-1,-7.340148091E-1
1.339679125E0,4.697743654E-1,-4.808658063E-1,-8.503928185E-1
1.349603125E0,5.187094212E-1,-6.130754948E-1,-1.014059544E0
1.359526125E0,4.810762703E-1,-7.671182156E-1,-1.310397029E0
1.369450125E0,4.779806137E-1,-7.704107165E-1,-1.626958013E0
1.379373125E0,5.897169709E-1,-2.614306808E-1,-1.554657340E0
1.389296125E0,8.937354684E-1,7.371340990E-1,-1.201959729E0
1.399220125E0,1.106784582E0,1.374677181E0,-4.828279316E-1
1.409143125E0,5.778168440E-1,5.848227143E-1,-6.504292786E-2
1.419067125E0,-1.427222788E-1,3.937838599E-2,-8.016997576E-2
1.428990125E0,-3.739949167E-1,-2.800803185E-1,-1.434828937E-1
1.438909500E0,-3.673243821E-1,-5.793740153E-1,-3.410399258E-1
1.448833500E0,-2.653327882E-1,-6.103119254E-1,-6.590472460E-1
1.458756500E0,-1.540741324E-1,-5.154876113E-1,-9.218173027E-1
1.468680500E0,-6.088000163E-2,-4.316073656E-1,-8.602213264E-1
1.478603500E0,-5.951491185E-3,-3.002872765E-1,-6.018676162E-1
1.488527500E0,-1.829923689E-2,-2.746024132E-1,-3.727343082E-1
1.498450500E0,1.728999987E-2,-2.538801432E-1,-3.225640655E-1
1.508373500E0,1.431576461E-1,-2.432546616E-1,-4.025028348E-1
1.518297500E0,1.981026083E-1,-2.771211863E-1,-4.865103662E-1
1.528220500E0,1.093767285E-1,-3.729949892E-1,-5.364012122E-1
1.538144500E0,2.344935015E-2,-4.748327136E-1,-5.187796354E-1
1.548067500E0,3.604716808E-2,-4.568332136E-1,-5.507338643E-1
1.557990500E0,1.441178173E-1,-5.002953410E-1,-5.984149575E-1
1.567914500E0,3.889006674E-1,-7.040713429E-1,-5.716613531E-1
1.577837500E0,7.042348385E-1,-9.601849318E-1,-3.491771519E-1
1.587761500E0,8.962790966E-1,-1.206501961E0,-6.872154027E-2
1.597684500E0,9.866867065E-1,-1.472354650E0,1.975792497E-1
1.607607500E0,1.049535513E0,-1.535637498E0,3.216684163E-1
1.617531500E0,1.119626164E0,-1.420492291E0,2.434176207E-1
1.627454500E0,1.302911639E0,-1.286102533E0,1.890811324E-1
1.637378500E0,1.452955723E0,-1.256321073E0,2.202623636E-1
1.647301500E0,1.557257891E0,-1.277512670E0,4.010023475E-1
1.657224500E0,1.647301912E0,-1.356711864E0,6.367649436E-1
1.667148500E0,1.757319450E0,-1.466552615E0,7.800896168E-1
1.677071500E0,1.931005478E0,-1.356030583E0,9.449597001E-1
1.686995500E0,2.160023451E0,-1.143701315E0,1.074343562E0
1.696918500E0,2.377686501E0,-1.286051035E0,1.253371596E0
1.706841500E0,2.463295460E0,-1.272714257E0,1.384394884E0
1.716765500E0,2.482171535E0,-1.085096598E0,1.504441142E0
1.726688500E0,2.440274000E0,-9.744668007E-1,1.579542875E0
1.736612500E0,2.390324116E0,-1.035903454E0,1.588445306E0
1.746535500E0,2.357138872E0,-1.095307112E0,1.600302219E0
1.756458500E0,2.285245180E0,-1.112660408E0,1.592102289E0
1.766382500E0,2.195430756E0,-1.084884524E0,1.546177149E0
1.776305500E0,2.121215820E0,-6.866736412E-1,1.586998224E0
1.786229500E0,2.030164003E0,-4.042877853E-1,1.568571568E0
1.796152500E0,1.814077377E0,-1.353107393E-1,1.434579730E0
1.806075500E0,1.521664143E0,3.350993693E-1,1.235153794E0
1.815999500E0,1.269950628E0,3.504895270E-1,1.116372347E0
1.825922500E0,9.767389297E-1,2.136520743E-1,1.145965457E0
1.835846500E0,7.361698151E-1,6.700114906E-2,1.199421048E0
1.845769500E0,7.104585767E-1,-2.603079006E-2,1.271288633E0
1.855692500E0,7.783043385E-1,-3.152851015E-2,1.375527263E0
1.865616500E0,8.102473617E-1,-1.716235280E-2,1.472367287E0
1.875539500E0,7.522585988E-1,3.922485933E-2,1.503289223E0
1.885463500E0,5.889711380E-1,1.360747069E-1,1.429662347E0
1.895386500E0,3.857784867E-1,1.636633426E-1,1.223261714E0
1.905309500E0,2.316927463E-1,1.720429808E-1,1.020703793E0
1.915233500E0,1.744920611E-1,1.244585440E-1,9.086436629E-1
1.925156500E0,1.513614357E-1,3.900542855E-2,9.689033031E-1
1.935080500E0,8.347149193E-2,-2.389273793E-2,1.121301889E0
1.945003500E0,2.777041309E-2,1.277233288E-2,1.247783422E0
1.954926500E0,3.991900384E-2,1.836150289E-1,1.234198689E0
1.964850500E0,8.161718398E-2,4.170711935E-1,1.069330692E0
1.974773500E0,9.750594199E-2,5.448629856E-1,8.640221953E-1
1.984697500E0,5.095442384E-2,5.743087530E-1,7.264488935E-1
1.994620500E0,-4.414890427E-4,5.119768381E-1,6.660186648E-1
2.004543500E0,-5.356010050E-2,4.557468593E-1,7.913840413E-1
2.014467500E0,-9.776805341E-2,3.336702287E-1,9.698759913E-1
2.024390500E0,-1.068350524E-1,3.948986828E-1,1.083955646E0
2.034314500E0,-7.529363036E-2,5.400034189E-1,1.010593295E0
2.044237500E0,-7.124424912E-3,7.175715566E-1,7.260276675E-1
2.054160500E0,1.101532578E-1,8.347272277E-1,4.473330975E-1
2.064084500E0,2.282364964E-1,8.382681608E-1,3.820491731E-1
2.074007500E0,2.706398368E-1,6.797869205E-1,5.796025395E-1
2.083931500E0,2.351918519E-1,4.491907358E-1,8.832433820E-1
2.093854500E0,1.940125674E-1,2.889396548E-1,1.102825642E0
2.103777500E0,1.461574286E-1,2.854575813E-1,1.057397366E0
2.113701500E0,1.151716858E-1,4.966577590E-1,8.379911184E-1
2.123624500E0,1.059214622E-1,8.007931709E-1,6.182491779E-1
2.133548500E0,9.586697817E-2,1.095425844E0,5.105186701E-1
2.143471500E0,1.022188887E-1,1.334201217E0,5.083295107E-1
2.153394500E0,1.208334416E-1,1.581427813E0,5.856631398E-1
2.163318500E0,1.666824222E-1,1.790858507E0,7.113571167E-1
2.173241500E0,2.598500252E-1,1.887895823E0,8.197628856E-1
2.183165500E0,3.406844139E-1,1.875963330E0,7.864887714E-1
2.193088500E0,3.700520098E-1,1.839152932E0,5.986705422E-1
2.203011500E0,3.174993396E-1,1.787364602E0,3.834194839E-1
2.212935500E0,1.666294187E-1,1.784419298E0,2.901110947E-1
2.222858500E0,-3.388848901E-2,1.713900566E0,3.073055148E-1
2.232782500E0,-1.349025220E-1,1.636717319E0,3.774668872E-1
2.242705500E0,-5.006033555E-2,1.684391141E0,4.974792898E-1
2.252628500E0,1.847860813E-1,1.693865776E0,6.036255956E-1
2.262552500E0,4.628358185E-1,1.597977877E0,5.938898325E-1
2.272475500E0,6.634808183E-1,1.410033345E0,4.377429187E-1
2.282399500E0,6.093776822E-1,1.259291291E0,2.217363119E-1
2.292322500E0,3.290815055E-1,1.142124057E0,5.147080868E-2
2.302245500E0,-2.639403008E-2,1.003515124E0,-2.563889325E-2
2.312169500E0,-2.835243642E-1,8.956928849E-1,-2.659253590E-2
2.322092500E0,-3.348834217E-1,8.551806211E-1,-2.475069277E-2
2.332016500E0,-2.286665291E-1,8.337461352E-1,-4.487742856E-2
2.341939500E0,-7.375923544E-2,8.405393362E-1,-3.065268695E-2
2.351862500E0,3.206573799E-2,7.973966599E-1,3.472346812E-2
2.361786500E0,6.227104366E-2,7.046315670E-1,8.504736423E-2
2.371709500E0,4.583008960E-2,6.865755916E-1,6.491746008E-2
2.381633500E0,-2.867263928E-2,7.058951855E-1,-6.044591311E-3
2.391556500E0,-1.062051728E-1,7.022716403E-1,-6.072001904E-2
2.401479500E0,-1.784780324E-1,6.490308046E-1,-1.024213955E-1
2.411403500E0,-2.093116492E-1,5.908725858E-1,-1.284086853E-1
2.421326500E0,-1.761571467E-1,5.455464125E-1,-1.158627942E-1
2.431249500E0,-5.715610087E-2,5.019575357E-1,-1.193992868E-1
2.441177667E0,1.178993285E-1,4.664474726E-1,-1.633166820E-1
2.451100667E0,2.599522471E-1,4.491137564E-1,-1.731027663E-1
2.461024667E0,2.617805004E-1,4.147805572E-1,-1.081946045E-1
2.470947667E0,1.738133878E-1,3.255399764E-1,-3.556648642E-2
2.480870667E0,1.036926210E-1,2.881555855E-1,2.408059686E-2
2.490794667E0,1.276264638E-1,3.388921618E-1,3.018524870E-2
2.500717667E0,2.636833787E-1,4.268419743E-1,-2.557228878E-2
2.510641667E0,4.464462698E-1,4.939892888E-1,-6.745547801E-2
2.520564667E0,5.591230392E-1,5.184901357E-1,-1.944640838E-2
2.530487667E0,5.586200356E-1,4.860301316E-1,1.430816650E-1
2.540411667E0,4.687463641E-1,4.002981782E-1,3.052942753E-1
2.550334667E0,3.673042357E-1,2.873213291E-1,3.769355118E-1
2.560258667E0,3.546781838E-1,1.676734984E-1,3.650450408E-1
2.570181667E0,4.262404740E-1,2.387684956E-2,3.353725970E-1
2.580104667E0,5.230011344E-1,-6.870289147E-2,3.174961209E-1
2.590028667E0,5.395967364E-1,-1.281471252E-1,3.914249241E-1
2.599951667E0,4.612657130E-1,-1.344798505E-1,5.519884825E-1
2.609875667E0,3.500558138E-1,-9.253865480E-2,6.689651012E-1
2.619798667E0,3.239366114E-1,-5.872157589E-2,6.290882230E-1
2.629721667E0,4.210672081E-1,1.131426394E-1,5.079286098E-1
2.639645667E0,5.685871840E-1,4.384461641E-1,3.815298975E-1
2.649568667E0,6.969500184E-1,7.487756610E-1,3.084894121E-1
2.659492667E0,7.931316495E-1,8.857630491E-1,2.760821879E-1
2.669415667E0,8.416962624E-1,8.253006339E-1,3.010536432E-1
2.679338667E0,8.281780481E-1,6.200838089E-1,4.343744218E-1
2.689262667E0,7.613542080E-1,3.844365776E-1,5.887585878E-1
2.699185667E0,7.346544266E-1,2.931524813E-1,6.826949716E-1
2.709109667E0,7.779833078E-1,3.504971564E-1,6.924632192E-1
2.719032667E0,7.938264608E-1,4.178578258E-1,6.046209931E-1
2.728955667E0,7.717181444E-1,4.171119332E-1,4.460707009E-1
2.738879667E0,7.235764265E-1,2.753984630E-1,3.379509151E-1
2.748802667E0,6.168330312E-1,4.219596833E-2,3.226668239E-1
2.758726667E0,4.838890731E-1,-2.085225284E-1,3.820619881E-1
2.768649667E0,3.676623404E-1,-4.306932390E-1,4.674029052E-1
2.778572667E0,2.444434613E-1,-5.136622190E-1,5.085551143E-1
2.788496667E0,1.457583308E-1,-2.795995772E-1,4.378518164E-1
2.798419667E0,1.303207874E-1,1.032769457E-1,2.262240052E-1
2.808342667E0,1.961054355E-1,5.495077372E-1,3.987302538E-3
2.818266667E0,2.867000699E-1,8.157692552E-1,-1.513900310E-1
2.828189667E0,2.587047219E-1,6.715416312E-1,-2.357423455E-1
2.838113667E0,5.021489412E-2,1.896354705E-1,-2.054419518E-1
2.848036667E0,-2.194991261E-1,-5.588806272E-1,-1.190518141E-1
2.857959667E0,-4.694045782E-1,-9.859568477E-1,1.112932488E-1
2.867883667E0,-6.221249700E-1,-1.088502288E0,4.065269232E-1
2.877806667E0,-6.130164266E-1,-8.449381590E-1,4.335463047E-1
2.887730667E0,-5.127865076E-1,-3.207340240E-1,2.494727373E-1
2.897653667E0,-4.160511792E-1,1.947511733E-1,1.020246819E-1
2.907576667E0,-3.443700671E-1,5.364621282E-1,8.150589466E-2
2.917500667E0,-2.239818722E-1,6.810725927E-1,1.909314543E-1
2.927423667E0,-7.171028852E-2,6.194996238E-1,3.481462896E-1
2.937347667E0,2.963443473E-2,4.546718001E-1,5.646439791E-1
2.947270667E0,5.238904431E-2,3.221176863E-1,6.963267326E-1
2.957193667E0,5.654810369E-2,2.872321606E-1,6.448512673E-1
2.967117667E0,1.057436019E-1,2.970272601E-1,6.351398230E-1
2.977040667E0,2.030821443E-1,4.007672369E-1,6.404730678E-1
2.986963667E0,3.744905889E-1,5.723187327E-1,5.794569254E-1
2.996887667E0,5.546350479E-1,6.972537637E-1,5.515512228E-1
3.006810667E0,6.194433570E-1,7.730166912E-1,6.088294387E-1
3.016734667E0,5.225439668E-1,7.479670048E-1,6.585048437E-1
3.026657667E0,3.720974922E-1,7.290353179E-1,6.849830151E-1
3.036580667E0,2.442370057E-1,7.372458577E-1,6.615296006E-1
3.046504667E0,1.619302332E-1,7.687144279E-1,6.396438479E-1
3.056427667E0,9.606278688E-2,7.553200722E-1,5.915694833E-1
3.066351667E0,7.563029975E-2,7.459128499E-1,5.398579240E-1
3.076274667E0,8.023836464E-2,8.276830912E-1,4.871577024E-1
3.086197667E0,9.505242854E-2,9.488522410E-1,4.252654016E-1
3.096121667E0,1.049415395E-1,1.151653409E0,3.475085497E-1
3.106044667E0,1.639100313E-1,1.378875494E0,3.261577487E-1
3.115968667E0,1.913666874E-1,1.502021313E0,3.506116867E-1
3.125891667E0,1.755823344E-1,1.402062654E0,3.763765693E-1
3.135814667E0,1.522855461E-1,1.173164845E0,4.390729666E-1
3.145738667E0,1.205086559E-1,9.696276784E-1,4.941371381E-1
3.155661667E0,3.218864650E-2,8.326343894E-1,5.202835202E-1
3.165584667E0,-9.512189776E-2,7.187422514E-1,5.100705028E-1
3.175508667E0,-1.242384985E-1,6.977757215E-1,4.843587279E-1
3.185431667E0,-3.547542542E-2,7.435519695E-1,4.536589384E-1
3.195355667E0,8.467601240E-2,7.241582870E-1,4.639520645E-1
3.205278667E0,1.538622081E-1,5.901365280E-1,5.379046798E-1
3.215201667E0,1.484064609E-1,4.876756370E-1,5.931623578E-1
3.225125667E0,2.065282129E-2,4.729588330E-1,5.205857754E-1
3.235048667E0,-1.912612915E-1,4.350441992E-1,3.501967192E-1
3.244972667E0,-3.615000844E-1,3.584898114E-1,1.810880303E-1
3.254895667E0,-3.867835999E-1,1.375158578E-1,9.704983979E-2
3.264818667E0,-3.916308582E-1,-2.700281441E-1,1.723649204E-1
3.274742667E0,-4.162153006E-1,-5.421395898E-1,3.592634201E-1
3.284665667E0,-3.830518723E-1,-5.577103496E-1,4.443964958E-1
3.294588667E0,-2.826283276E-1,-2.826745510E-1,3.604083955E-1
3.304512667E0,-2.109793872E-1,9.710295498E-2,1.867269129E-1
3.314435667E0,-2.363087088E-1,3.454278111E-1,-4.834632576E-2
3.324359667E0,-2.150655836E-1,3.600367308E-1,-1.325783581E-1
