"Time (s)","X (rad/s)","Y (rad/s)","Z (rad/s)"
5.939700000E-2,-7.822386622E-1,-4.583300352E-1,-8.542811126E-2
6.937100005E-2,-6.724583507E-1,-4.256940484E-1,-1.630986631E-1
7.934400003E-2,-5.933222771E-1,-4.613047838E-1,-2.372035235E-1
8.931700001E-2,-5.607057214E-1,-5.203012824E-1,-2.786500454E-1
9.929099999E-2,-5.898110271E-1,-5.993686318E-1,-3.079167306E-1
1.092640000E-1,-6.735242605E-1,-7.044396400E-1,-3.353307843E-1
1.192370000E-1,-7.853018641E-1,-8.044910431E-1,-3.385401368E-1
1.292110000E-1,-9.100624323E-1,-9.207422733E-1,-3.113008142E-1
1.391840000E-1,-1.048153639E0,-1.085600734E0,-2.711221874E-1
1.491570000E-1,-1.134963989E0,-1.198161840E0,-2.294261456E-1
1.591310000E-1,-1.134488225E0,-1.194779396E0,-1.993472576E-1
1.691040000E-1,-1.069533706E0,-1.094317198E0,-1.901534945E-1
1.790770000E-1,-9.910771847E-1,-9.982060194E-1,-1.955555379E-1
1.890510000E-1,-9.475888014E-1,-8.843958378E-1,-2.205801904E-1
1.990240000E-1,-9.428126812E-1,-7.069560289E-1,-2.577995360E-1
2.089970000E-1,-9.969688058E-1,-6.247684956E-1,-3.140430748E-1
2.189700000E-1,-1.147076488E0,-7.618591785E-1,-3.943660259E-1
2.289440000E-1,-1.398471713E0,-9.570358992E-1,-4.830048382E-1
2.389170000E-1,-1.726472139E0,-1.025484920E0,-5.622414947E-1
2.488900000E-1,-2.079763174E0,-9.557854533E-1,-6.132021546E-1
2.588640000E-1,-2.400217056E0,-7.523754835E-1,-6.079570055E-1
2.688370000E-1,-2.649952412E0,-4.184155762E-1,-5.483642220E-1
2.788100000E-1,-2.835377455E0,-1.033889689E-2,-4.693151712E-1
2.887840000E-1,-2.974235773E0,5.571676493E-1,-4.325877726E-1
2.987570000E-1,-3.030439615E0,1.257634997E0,-3.789507747E-1
3.087300000E-1,-2.982280493E0,1.847970963E0,-2.387982011E-1
3.187040000E-1,-2.916892290E0,1.937347054E0,-9.418957680E-2
3.286770000E-1,-2.696549177E0,1.554828405E0,5.213727430E-2
3.386500000E-1,-2.207561255E0,1.012426138E0,1.912578195E-1
3.486240000E-1,-1.469176888E0,4.083165824E-1,2.551425099E-1
3.585970000E-1,-6.612592340E-1,-5.646139383E-2,2.701496184E-1
3.685700000E-1,1.519992296E-2,-2.869539857E-1,2.542044818E-1
3.785440000E-1,2.964729369E-1,-4.579624832E-1,1.909234375E-1
3.885170000E-1,4.970305264E-1,-5.840647817E-1,1.694453061E-1
3.984900000E-1,5.173067451E-1,-8.217849135E-1,1.124869287E-1
4.084640000E-1,5.162926316E-1,-1.097012281E0,7.784692943E-2
4.184370000E-1,5.995646715E-1,-1.283683658E0,1.575418115E-1
4.284100000E-1,7.680564523E-1,-1.225902438E0,3.002126813E-1
4.383840000E-1,9.248020649E-1,-9.398167729E-1,4.511517882E-1
4.483570000E-1,9.923132062E-1,-6.612253189E-1,4.944193661E-1
4.583300000E-1,9.574065208E-1,-4.681393504E-1,3.786747754E-1
4.683040000E-1,8.093954921E-1,-3.265627623E-1,1.428161860E-1
4.782770000E-1,5.960226059E-1,-1.952745318E-1,-7.313089818E-2
4.882500000E-1,3.880468011E-1,-1.942344592E-3,-1.661199480E-1
4.982240000E-1,2.597961426E-1,2.636829317E-1,-1.257568151E-1
5.081970000E-1,1.914807260E-1,5.827663541E-1,3.539691120E-2
5.181700000E-1,1.172962040E-1,8.585222363E-1,2.346009612E-1
5.281430000E-1,1.779461745E-3,1.104110479E0,4.219458103E-1
5.381170000E-1,-1.326654702E-1,1.229918003E0,6.197733283E-1
5.480900000E-1,-2.650168538E-1,1.248277545E0,8.564260602E-1
5.580630000E-1,-3.771521747E-1,1.045793891E0,1.179097295E0
5.680370000E-1,-4.504812658E-1,6.992309093E-1,1.482290983E0
5.780100000E-1,-5.130169988E-1,2.678055763E-1,1.694861174E0
5.879830000E-1,-6.366081834E-1,-1.805466563E-1,1.777086496E0
5.979570000E-1,-8.611102700E-1,-5.749140978E-1,1.733175874E0
6.079300000E-1,-1.138333082E0,-7.434793711E-1,1.611539483E0
6.179030000E-1,-1.409454107E0,-7.267354131E-1,1.459475636E0
6.278770000E-1,-1.591869473E0,-8.115006685E-1,1.356549978E0
6.378500000E-1,-1.643200278E0,-8.864898086E-1,1.276950955E0
6.478230000E-1,-1.573003292E0,-9.981284738E-1,1.206793904E0
6.577970000E-1,-1.417710781E0,-1.151798010E0,1.122607589E0
6.677700000E-1,-1.069248438E0,-3.901997805E-1,1.035070539E0
6.777430000E-1,-7.262192965E-1,-5.840491503E-2,8.410363793E-1
6.877170000E-1,-3.808352649E-1,2.035478652E-1,5.509659648E-1
6.976900000E-1,-6.871034205E-2,1.593893468E-1,1.686608195E-1
7.076630000E-1,2.368620932E-1,-1.279236525E-1,-7.839079201E-2
7.176370000E-1,5.081683397E-1,-3.900208771E-1,-2.432441711E-1
7.276100000E-1,7.135965824E-1,-6.284193993E-1,-4.303986132E-1
7.375830000E-1,8.666344285E-1,-6.423960328E-1,-5.318413377E-1
7.475570000E-1,9.993519783E-1,-7.141330838E-1,-5.580518842E-1
7.575300000E-1,1.070425749E0,-7.940779924E-1,-5.361876488E-1
7.675030000E-1,1.114687443E0,-9.332864881E-1,-4.973342419E-1
7.774760000E-1,1.136473656E0,-1.008113265E0,-4.465313256E-1
7.874500000E-1,1.085923910E0,-1.093364716E0,-3.980721831E-1
7.974230000E-1,9.002898932E-1,-1.207841516E0,-3.792487681E-1
8.073960000E-1,6.225965023E-1,-1.294599533E0,-4.107329249E-1
8.173700000E-1,3.671810031E-1,-1.331233263E0,-4.348151088E-1
8.273430000E-1,1.932685822E-1,-1.293016553E0,-3.872433305E-1
8.373160000E-1,7.880017906E-2,-1.137018800E0,-2.923425436E-1
8.472900000E-1,-1.010412164E-2,-8.861873746E-1,-2.141023129E-1
8.572630000E-1,-7.840764523E-2,-5.636962652E-1,-1.854331791E-1
8.672360000E-1,-9.465346485E-2,-2.645409703E-1,-1.860033572E-1
8.772100000E-1,-8.251908422E-2,-6.633277237E-2,-1.920518428E-1
8.871830000E-1,-5.740255117E-2,-1.529435720E-2,-1.746472865E-1
8.971560000E-1,-1.387190446E-2,-7.343313098E-2,-1.585624814E-1
9.071300000E-1,6.824080646E-2,-2.468717694E-1,-1.621657312E-1
9.171024584E-1,1.838997602E-1,-4.720031321E-1,-1.704034209E-1
9.270754583E-1,2.831195593E-1,-6.937019825E-1,-2.079254985E-1
9.370494583E-1,3.571887314E-1,-9.559379816E-1,-2.204535753E-1
9.470224584E-1,4.044374526E-1,-1.205556750E0,-1.982617229E-1
9.569954583E-1,3.939085603E-1,-1.346284270E0,-1.657823324E-1
9.669694583E-1,3.617317080E-1,-1.258566856E0,-1.066899821E-1
9.769424584E-1,3.936254382E-1,-1.106576920E0,-4.758967832E-2
9.869154583E-1,4.517542720E-1,-1.079685926E0,-4.260770231E-2
9.968894583E-1,4.824131131E-1,-9.870245457E-1,-5.269255862E-2
1.006862458E0,4.877175987E-1,-7.839776874E-1,-7.508228719E-2
1.016835458E0,4.484306872E-1,-5.482109785E-1,-8.882269263E-2
1.026809458E0,3.512642086E-1,-2.751032710E-1,-5.722215027E-2
1.036782458E0,2.108600736E-1,-1.369945109E-1,8.430045098E-2
1.046755458E0,5.255085975E-2,-1.243828386E-1,1.880353540E-1
1.056729458E0,-5.147480965E-2,-1.838715374E-1,3.410453200E-1
1.066702458E0,-9.639248252E-2,-3.858816326E-1,6.201515198E-1
1.076675458E0,-6.355063617E-2,-6.390748024E-1,9.234201312E-1
1.086648458E0,6.002962589E-2,-8.590713739E-1,1.075324535E0
1.096622458E0,2.526795566E-1,-1.019608617E0,1.096230388E0
1.106595458E0,5.034508109E-1,-1.190374017E0,1.083334565E0
1.116568458E0,7.872160673E-1,-1.619477153E0,1.192130089E0
1.126542458E0,1.078184009E0,-2.017976284E0,1.371569037E0
1.136515458E0,1.336767554E0,-2.433979988E0,1.507886291E0
1.146488458E0,1.568776846E0,-2.900363445E0,1.604394436E0
1.156462458E0,1.790250659E0,-3.355854511E0,1.673648119E0
1.166435458E0,1.975869060E0,-3.848464251E0,1.724567413E0
1.176408458E0,2.088293314E0,-4.276413918E0,1.837824583E0
1.186382458E0,2.090193272E0,-4.647644520E0,2.016846418E0
1.196355458E0,2.128220081E0,-5.022486687E0,2.141452789E0
1.206328458E0,2.210481405E0,-5.267155647E0,2.308895588E0
1.216302458E0,2.205472231E0,-5.485569954E0,2.519333601E0
1.226275458E0,2.071234226E0,-5.724835873E0,2.726829052E0
1.236248458E0,1.869503140E0,-5.935579300E0,2.989598513E0
1.246222458E0,1.697314858E0,-6.016159534E0,3.281310797E0
1.256195458E0,1.565501451E0,-5.995572567E0,3.561429501E0
1.266168458E0,1.475818515E0,-5.995738983E0,3.785671473E0
1.276142458E0,1.534215927E0,-6.082236290E0,3.961465836E0
1.286115458E0,1.773582220E0,-6.138282299E0,4.056639194E0
1.296088458E0,2.155587912E0,-6.123045921E0,4.065192223E0
1.306061458E0,2.539336920E0,-6.104365349E0,4.105213165E0
1.316035458E0,2.833863735E0,-6.040394306E0,4.189255714E0
1.326008458E0,3.032219172E0,-5.824692726E0,4.311922073E0
1.335981458E0,3.124577284E0,-5.483112335E0,4.410501003E0
1.345955458E0,3.104523420E0,-5.048408508E0,4.509125233E0
1.355928458E0,2.965386629E0,-4.470439911E0,4.589208603E0
1.365901458E0,2.760421276E0,-3.815629959E0,4.641336441E0
1.375875458E0,2.518220901E0,-3.158784151E0,4.620225906E0
1.385848458E0,2.243943214E0,-2.600903749E0,4.561096191E0
1.395821458E0,1.982819915E0,-2.199721575E0,4.465108871E0
1.405795458E0,1.829144835E0,-2.080837965E0,4.356878757E0
1.415768458E0,1.870675087E0,-2.199730873E0,4.209595203E0
1.425741458E0,2.101960897E0,-2.386680841E0,4.020840168E0
1.435715458E0,2.407498360E0,-2.501706362E0,3.846445560E0
1.445688458E0,2.620508432E0,-2.479376554E0,3.693539858E0
1.455661458E0,2.684799194E0,-2.254778624E0,3.592339993E0
1.465635458E0,2.602670908E0,-1.987793803E0,3.504329443E0
1.475608458E0,2.411624193E0,-1.833553672E0,3.405100822E0
1.485581458E0,2.173846006E0,-1.821194649E0,3.308375120E0
1.495555458E0,1.976557612E0,-1.966345310E0,3.367129326E0
1.505528458E0,1.895229220E0,-2.191215992E0,3.487955809E0
1.515501458E0,1.845983386E0,-2.532736063E0,3.591828823E0
1.525475458E0,1.849314928E0,-2.916629553E0,3.786012888E0
1.535448458E0,1.893396616E0,-3.477811337E0,4.018103600E0
1.545421458E0,1.987097502E0,-4.253280163E0,4.219359398E0
1.555395458E0,2.133391142E0,-4.986883163E0,4.354293346E0
1.565368458E0,2.684389353E0,-5.152676105E0,3.350501299E0
1.575341458E0,3.244955540E0,-4.441807270E0,9.383271933E-1
1.585315458E0,1.984192371E0,-1.542758465E0,-1.005824089E0
1.595288458E0,-2.748667300E-1,1.015897989E0,-8.238080740E-1
1.605261458E0,-1.404530644E0,1.378715515E0,-5.083994195E-2
1.615234458E0,-1.632164001E0,1.169819117E0,5.079672337E-1
1.625208458E0,-1.578104019E0,1.246268824E-1,8.875638247E-1
1.635181458E0,-1.605187297E0,-1.028300166E0,1.314649820E0
1.645154458E0,-1.803410649E0,-1.193866968E0,1.734324098E0
1.655128458E0,-2.066768408E0,-1.027202606E0,2.032865763E0
1.665101458E0,-2.147854805E0,-5.624133945E-1,2.136457443E0
1.675074458E0,-1.944377542E0,-3.910391033E-2,2.095182419E0
1.685048458E0,-1.578783512E0,3.369205892E-1,1.959955692E0
1.695021458E0,-1.410644770E0,-7.197707146E-2,1.608635426E0
1.704994458E0,-1.419322133E0,-2.271453440E-1,1.195091844E0
1.714968458E0,-1.623586059E0,3.399387300E-1,7.764513493E-1
1.724941458E0,-1.781273723E0,1.436654210E0,2.979920805E-1
1.734914458E0,-2.205327511E0,1.584405661E0,-8.980380371E-3
1.744888458E0,-2.692585230E0,1.065492630E0,-1.103677154E-1
1.754861458E0,-2.907125473E0,1.473937750E0,-1.404721886E-1
1.764834458E0,-3.044177055E0,1.338629723E0,-1.396772265E-1
1.774808458E0,-2.897498846E0,6.632929444E-1,7.958934456E-2
1.784781458E0,-2.179616690E0,1.771270335E-1,3.753259182E-1
1.794754458E0,-7.558665872E-1,1.699372679E-1,6.867278814E-1
1.804728458E0,6.173916459E-1,5.161306262E-1,8.500730991E-1
1.814701458E0,1.364846349E0,1.001425028E0,7.787535787E-1
1.824674458E0,1.365291595E0,2.375570774E0,6.942384243E-1
1.834648458E0,9.787497520E-1,2.898148775E0,7.558549643E-1
1.844621458E0,5.004942417E-1,2.212187290E0,9.439817071E-1
1.854594458E0,1.139508262E-1,1.004857659E0,1.193079233E0
1.864567458E0,-3.699927032E-2,-1.336641461E-1,1.363396168E0
1.874541458E0,-9.324337542E-2,-8.605859876E-1,1.478741050E0
1.884514458E0,-2.316683531E-1,-9.741042852E-1,1.583588958E0
1.894487458E0,-5.374735594E-1,-5.257943869E-1,1.620549560E0
1.904461458E0,-8.225897551E-1,2.951118536E-2,1.614173174E0
1.914434750E0,-7.474303842E-1,2.638292611E-1,1.598254442E0
1.924407750E0,-2.149906605E-1,1.791332811E-1,1.510451913E0
1.934381750E0,3.006323874E-1,2.574066818E-1,1.376759887E0
1.944354750E0,5.136322975E-1,5.155827999E-1,1.247654080E0
1.954327750E0,5.778658390E-1,6.283572316E-1,1.243556023E0
1.964301750E0,6.102336645E-1,4.828948379E-1,1.359672308E0
1.974274750E0,6.163666844E-1,3.992464542E-1,1.569824576E0
1.984247750E0,6.281144023E-1,6.057264209E-1,1.811020851E0
1.994221750E0,6.363772750E-1,7.862868905E-1,2.056424379E0
2.004194750E0,6.377961636E-1,9.047688246E-1,2.112122297E0
2.014167750E0,6.717775464E-1,1.068769932E0,1.936785817E0
2.024141750E0,7.091544867E-1,1.019242883E0,1.623153090E0
2.034114750E0,8.578261137E-1,4.687207043E-1,1.220477700E0
2.044087750E0,9.215646386E-1,1.611277163E-1,9.550591111E-1
2.054061750E0,8.119283915E-1,3.433968127E-1,7.879312038E-1
2.064034750E0,6.428483129E-1,4.106394947E-1,7.670123577E-1
2.074007750E0,5.123515725E-1,2.556677759E-1,6.928794980E-1
2.083981750E0,5.113928318E-1,9.648078680E-2,6.072463393E-1
2.093954750E0,4.560389817E-1,6.674283743E-2,5.515069366E-1
2.103927750E0,4.035384953E-1,6.129427627E-2,6.556959152E-1
2.113901750E0,3.645811677E-1,-1.570213400E-2,8.524417877E-1
2.123874750E0,3.119992018E-1,-2.746407390E-1,1.102232337E0
2.133847750E0,3.053953350E-1,-5.526381731E-1,1.421517611E0
2.143820750E0,2.798228562E-1,-5.754119158E-1,1.806433916E0
2.153794750E0,1.523292214E-1,-3.833737671E-1,2.138448000E0
2.163767750E0,-6.611178070E-2,-5.710152984E-1,2.387650728E0
2.173740750E0,-2.137673795E-1,-7.832980156E-1,2.597104073E0
2.183714750E0,-2.966324389E-1,-8.979782462E-1,2.730131626E0
2.193687750E0,-4.866442382E-1,-7.548188567E-1,2.767452002E0
2.203660750E0,-6.953654885E-1,-6.099652648E-1,2.806750298E0
2.213634750E0,-7.442457080E-1,-5.516685247E-1,2.859076262E0
2.223607750E0,-5.571743250E-1,-6.756570935E-1,2.938706636E0
2.233580750E0,-7.993227243E-2,-8.231381774E-1,3.030174971E0
2.243554750E0,6.140094399E-1,-7.609182596E-1,3.080747604E0
2.253527750E0,1.336697102E0,-5.460978746E-1,3.065391779E0
2.263500750E0,2.019360781E0,-3.066450953E-1,3.036290407E0
2.273474750E0,2.648185730E0,-1.302756667E-1,3.003935814E0
2.283447750E0,3.134776831E0,-1.327607408E-2,3.001049995E0
2.293420750E0,3.408320189E0,8.728096634E-2,3.069948673E0
2.303394750E0,3.193540096E0,-7.071799040E-2,3.209281683E0
2.313367750E0,9.983702898E-1,-3.347916842E0,1.863509059E0
2.323340750E0,-9.554855227E-1,-1.344048023E0,-1.851936430E-1
2.333314750E0,-1.704178333E0,2.214467287E0,-7.714096904E-1
2.343287750E0,-2.251300573E0,1.247758508E0,-9.361158013E-1
2.353260750E0,-1.730202794E0,-8.423619270E-1,-1.027747989E0
2.363234750E0,-4.918217063E-1,-1.348737597E0,-1.098623991E0
2.373207750E0,1.572111621E-2,-9.909047484E-1,-9.257521033E-1
2.383180750E0,-3.655268848E-1,-5.591182113E-1,-6.405946612E-1
2.393154750E0,-8.281609416E-1,-1.124741361E-1,-4.248444736E-1
2.403127750E0,-6.976809502E-1,1.594154388E-1,-3.901770413E-1
2.413100750E0,1.086338386E-1,7.160121948E-2,7.120990753E-2
2.423073750E0,4.277098179E-1,1.194864511E-1,-1.042079851E-1
2.433047750E0,8.136569709E-2,-4.724408966E-3,4.452442005E-2
2.443020750E0,-1.333956122E-1,-1.404893491E-2,6.070471928E-2
2.452993750E0,-1.857611910E-2,1.327770296E-2,1.312003843E-2
2.462967750E0,3.643067554E-2,-2.197935432E-2,3.270869842E-3
2.472940750E0,1.149940491E-2,-3.261715546E-2,9.013742208E-3
2.482913750E0,5.933930632E-3,-1.931066997E-2,9.198298678E-3
2.492887750E0,8.725188673E-5,-3.140927106E-2,7.962383330E-3
2.502860750E0,-1.231642067E-2,-4.593282193E-2,1.387753058E-2
2.512833750E0,-5.578445736E-3,-4.978781939E-2,1.882571541E-2
2.522807750E0,-3.586933482E-3,-6.520618498E-2,1.663100347E-2
2.532780750E0,-1.906247437E-2,-8.617930859E-2,1.524559688E-2
2.542753750E0,-3.421213105E-2,-1.032621562E-1,2.156580985E-2
2.552727750E0,-4.520443454E-2,-1.080548614E-1,2.139397524E-2
2.562700750E0,-5.459234491E-2,-1.194963306E-1,1.880645007E-2
2.572673750E0,-5.664923787E-2,-1.346709877E-1,1.215189043E-2
2.582647750E0,-6.497161090E-2,-1.507141292E-1,9.814966470E-3
2.592620750E0,-8.229473233E-2,-2.071265578E-1,8.448916487E-3
2.602593750E0,-8.909324557E-2,-3.207535148E-1,9.971711785E-3
2.612567750E0,-1.408360004E-1,-4.649656117E-1,-1.340953168E-3
2.622540750E0,-2.096238583E-1,-6.785034537E-1,-2.630189527E-3
2.632513750E0,-2.407615185E-1,-1.036837459E0,1.962478086E-2
2.642487750E0,-2.166383415E-1,-1.507265687E0,5.266848207E-2
2.652460750E0,-1.597076356E-1,-2.154267550E0,1.226805076E-1
2.662433750E0,-8.290206641E-2,-2.848054409E0,2.701202929E-1
2.672407750E0,-1.000113413E-1,-2.767292976E0,3.723759055E-1
2.682380750E0,3.182801902E-1,-1.175544977E0,2.754118145E-1
2.692353750E0,8.030995727E-2,-4.322111141E-3,9.975849837E-2
2.702327750E0,-1.631564945E-1,5.289428830E-1,-8.144462481E-4
2.712300750E0,-1.431011260E-1,4.772022665E-1,-2.660352364E-2
2.722273750E0,3.034770954E-3,2.575375438E-1,-2.969119325E-2
2.732246750E0,8.687332273E-2,7.385285199E-2,-1.383943483E-2
2.742220750E0,5.967552215E-2,3.526498005E-2,8.854959160E-3
2.752193750E0,1.688014157E-2,6.797742844E-2,1.666124351E-2
2.762166750E0,9.731152095E-3,1.033572629E-1,2.358040214E-2
2.772140750E0,2.533245832E-2,1.192583218E-1,3.782479465E-2
2.782113750E0,3.451876715E-2,1.277543455E-1,4.777196795E-2
2.792086750E0,3.770759702E-2,1.283111572E-1,5.143715441E-2
2.802060750E0,3.583166748E-2,1.304448843E-1,5.283265188E-2
2.812033750E0,3.337082267E-2,1.344743520E-1,4.790190607E-2
2.822006750E0,2.484604716E-2,1.434641182E-1,4.050231352E-2
2.831980750E0,1.461753715E-2,1.458416134E-1,3.477695584E-2
2.841953750E0,1.425960846E-2,1.435446441E-1,2.585536614E-2
2.851926750E0,1.984505728E-2,1.366318762E-1,1.573029533E-2
2.861900750E0,2.985348180E-2,1.289614439E-1,5.992179736E-3
2.871873750E0,3.541742265E-2,1.294231564E-1,1.955270069E-3
2.881846750E0,3.175610676E-2,1.353162080E-1,2.332702279E-4
2.891820750E0,2.408247441E-2,1.422774345E-1,1.912659500E-3
2.901793750E0,1.533745229E-2,1.417274922E-1,2.673790790E-3
2.911767000E0,1.716702618E-2,1.416744739E-1,4.125921987E-3
2.921741000E0,8.984464221E-3,1.408981681E-1,2.574098064E-3
2.931714000E0,7.164215669E-3,1.399456561E-1,3.158517880E-3
2.941687000E0,1.088012476E-2,1.402212977E-1,4.210466519E-3
2.951661000E0,1.264670212E-2,1.464204192E-1,5.081913900E-3
2.961634000E0,1.647179946E-2,1.427692175E-1,8.536033332E-3
2.971607000E0,1.703821495E-2,1.368763149E-1,8.906328119E-3
2.981581000E0,1.326318458E-2,1.301994920E-1,1.123366505E-2
2.991554000E0,5.667216610E-3,1.254739910E-1,1.281448826E-2
3.001527000E0,-3.453044686E-3,1.331377625E-1,1.068395935E-2
3.011500000E0,-1.589934528E-2,1.416936964E-1,-4.463127814E-3
3.021474000E0,-2.466966584E-2,1.469457150E-1,-3.899603151E-3
3.031447000E0,-2.363385819E-2,1.516372263E-1,-3.688620869E-3
3.041420000E0,-1.641722396E-2,1.531986296E-1,-8.385637775E-3
3.051394000E0,-8.110750467E-3,1.507648826E-1,-1.466752961E-2
3.061367000E0,-3.807615954E-3,1.462846547E-1,-1.444409043E-2
3.071340000E0,4.641315900E-4,1.392749995E-1,-1.308496110E-2
3.081314000E0,9.280540980E-4,1.360912025E-1,-4.237939604E-3
3.091287000E0,-5.496388767E-3,1.370563358E-1,4.214104731E-3
3.101260000E0,-1.160461456E-2,1.398979276E-1,4.769373685E-3
3.111234000E0,-7.451555692E-3,1.415942162E-1,5.738851614E-3
3.121207000E0,-7.303483784E-3,1.315112263E-1,8.553279564E-3
3.131180000E0,-1.488707960E-3,1.119595990E-1,1.818628795E-2
3.141154000E0,-8.082697168E-4,9.631246328E-2,2.559866384E-2
3.151127000E0,6.108628120E-3,8.548063040E-2,2.740922943E-2
3.161100000E0,9.096428752E-3,8.455011994E-2,2.476417832E-2
3.171074000E0,1.008911245E-2,8.275634795E-2,1.861422881E-2
3.181047000E0,2.084055915E-2,7.433170080E-2,1.398991514E-2
3.191020000E0,2.588566951E-2,5.517639220E-2,1.238385495E-2
3.200994000E0,2.452399395E-2,3.122791462E-2,7.607475854E-3
3.210967000E0,3.205831349E-2,1.818751544E-2,4.653941374E-3
3.220940000E0,3.680486605E-2,1.647537015E-2,2.295712242E-3
3.230914000E0,4.439583048E-2,1.173983142E-2,1.277968660E-2
3.240887000E0,4.543899000E-2,5.577543285E-3,1.967807300E-2
3.250860000E0,4.578256980E-2,3.020607634E-3,1.232943498E-2
3.260834000E0,3.831719607E-2,-2.101183869E-3,4.603604786E-3
3.270807000E0,2.965267561E-2,-9.095861576E-3,2.038686071E-3
3.280780000E0,2.452822030E-2,-8.042846806E-3,4.261420108E-4
3.290754000E0,1.118088514E-2,4.811618011E-3,-9.963707998E-3
3.300727000E0,-9.352087043E-3,1.230308972E-2,-1.555528119E-2
3.310700000E0,-3.378834575E-2,7.722624578E-3,-2.004874125E-2
3.320673000E0,-5.045254156E-2,-3.719381057E-3,-2.281896211E-2
3.330647000E0,-5.973124504E-2,-1.985844783E-2,-2.110042796E-2
3.340620000E0,-5.566566437E-2,-3.059311770E-2,-2.256703004E-2
3.350593000E0,-4.555550218E-2,-3.994498029E-2,-2.425065078E-2
3.360567000E0,-3.268551081E-2,-4.926551133E-2,-2.926192060E-2
3.370540000E0,-2.932617068E-2,-6.268797070E-2,-2.920753323E-2
3.380513000E0,-2.990327775E-2,-8.121478558E-2,-3.361773118E-2
