"Time (s)","Acceleration x (m/s^2)","Acceleration y (m/s^2)","Acceleration z (m/s^2)"
2.268829600E-2,-1.389930844E0,4.982754230E0,7.480561733E0
2.512178600E-2,-1.234397411E0,5.080859661E0,7.640881062E0
2.755131700E-2,-1.050150037E0,5.128716469E0,7.767700672E0
2.998011900E-2,-8.536394835E-1,5.198407173E0,7.930412292E0
3.240886900E-2,-6.382854581E-1,5.310869694E0,8.086244583E0
3.483840000E-2,-4.516452849E-1,5.447260857E0,8.193922043E0
3.726793200E-2,-2.312064916E-1,5.538187981E0,8.311170578E0
3.969673400E-2,-3.738785535E-2,5.624329567E0,8.359026909E0
4.212548400E-2,1.636092514E-1,5.708078384E0,8.421239853E0
4.455501500E-2,3.194418252E-1,5.770590782E0,8.500203133E0
4.698454600E-2,4.414757788E-1,5.808876038E0,8.560322762E0
4.941334800E-2,5.706881881E-1,5.866303921E0,8.668000221E0
5.184209800E-2,5.850451589E-1,5.866303921E0,8.766105652E0
5.427168200E-2,6.161518097E-1,5.820840359E0,8.964710236E0
5.670121300E-2,6.640082598E-1,5.741877079E0,9.206684113E0
5.912996300E-2,7.286145091E-1,5.619544029E0,9.486644745E0
6.155871300E-2,7.959126234E-1,5.452046394E0,9.740582466E0
6.398829600E-2,8.988040090E-1,5.217549801E0,9.884152412E0
6.641782700E-2,9.490532875E-1,4.855934620E0,9.977472305E0
6.884657700E-2,9.346963167E-1,4.467998028E0,9.994221687E0
7.127532700E-2,8.629116416E-1,4.005884171E0,1.001097202E1
7.370491100E-2,7.070791125E-1,3.584747314E0,9.965508461E0
7.613444200E-2,4.773681164E-1,3.180061340E0,9.872187614E0
7.856319200E-2,2.620140910E-1,2.808874607E0,9.752547264E0
8.099199400E-2,1.046859939E-2,2.483450890E0,9.570393562E0
8.342157700E-2,-2.335993052E-1,2.186441660E0,9.405288696E0
8.585110900E-2,-4.923232496E-1,1.951945066E0,9.309576035E0
8.827980700E-2,-7.746763229E-1,1.762612939E0,9.225827217E0
9.070860900E-2,-1.066899776E0,1.635793328E0,9.151649475E0
9.313819200E-2,-1.366002679E0,1.564008713E0,9.060422897E0
9.556772300E-2,-1.593619823E0,1.535294771E0,8.938388824E0
9.799647300E-2,-1.825723648E0,1.559223056E0,8.790034294E0
1.004252230E-1,-2.041077614E0,1.631007791E0,8.663214684E0
1.028548070E-1,-2.204088688E0,1.753041744E0,8.553144455E0
1.052843380E-1,-2.409871578E0,1.901695848E0,8.421239853E0
1.077130880E-1,-2.548655272E0,2.088335991E0,8.287241936E0
1.101418900E-1,-2.639881611E0,2.274976015E0,8.165207863E0
1.125714730E-1,-2.697309256E0,2.488236427E0,8.014460564E0
1.150010040E-1,-2.704487801E0,2.674876690E0,7.889734268E0
1.174297020E-1,-2.634796858E0,2.880659342E0,7.758129120E0
1.198585040E-1,-2.519941330E0,3.151347399E0,7.619345665E0
1.222880880E-1,-2.333301067E0,3.381058455E0,7.523632526E0
1.247176190E-1,-2.146661043E0,3.680460215E0,7.482954502E0
1.271463690E-1,-2.002792597E0,3.931706667E0,7.609774113E0
1.295751190E-1,-1.957328916E0,4.168895245E0,7.564310551E0
1.320047020E-1,-1.816152334E0,4.334000111E0,7.490133286E0
1.344342340E-1,-1.660618901E0,4.501497746E0,7.403991699E0
1.368629840E-1,-1.473679662E0,4.599902630E0,7.284051418E0
1.392917340E-1,-1.277468204E0,4.645366192E0,7.169195652E0
1.417213170E-1,-1.062114120E0,4.587639332E0,6.977769852E0
1.441508480E-1,-8.775677085E-1,4.398606300E0,6.745367050E0
1.465795980E-1,-7.100701332E-1,4.123431683E0,6.482156754E0
1.490084000E-1,-5.808576941E-1,3.740280867E0,6.134898186E0
1.514379840E-1,-4.779663086E-1,3.371487141E0,5.771189213E0
1.538675150E-1,-3.340978622E-1,3.194418192E0,5.476572990E0
1.562962130E-1,-1.905284971E-1,3.077169895E0,5.323431969E0
1.587250150E-1,5.353940651E-2,3.079562664E0,5.385645390E0
1.611545980E-1,3.002992272E-1,3.165704250E0,5.617749214E0
1.635841290E-1,5.587241054E-1,3.316452265E0,6.012864113E0
1.660128790E-1,7.671987414E-1,3.477070332E0,6.573083878E0
1.684416290E-1,7.815557122E-1,3.692424536E0,7.901698589E0
1.708712130E-1,4.749752879E-1,3.826422453E0,1.077248764E1
1.733007440E-1,1.636092514E-1,3.757030725E0,1.290538979E1
1.757294940E-1,1.926222295E-1,3.527319670E0,1.172991562E1
1.781582960E-1,3.122633696E-1,3.160918713E0,1.007557774E1
1.805878270E-1,4.271188378E-1,2.806481838E0,9.867402077E0
1.830173590E-1,5.898307562E-1,2.447558403E0,1.046112156E1
1.854461090E-1,8.341978192E-1,2.198405743E0,1.108594704E1
1.878749110E-1,1.073480010E0,2.069193363E0,1.134467125E1
1.903044940E-1,1.260120273E0,2.035693884E0,1.126301575E1
1.927340250E-1,1.425524116E0,2.062014818E0,1.117208862E1
1.951627750E-1,1.561915040E0,2.090728760E0,1.121994495E1
1.975915250E-1,1.679163337E0,2.162513494E0,1.143559837E1
2.000211090E-1,1.813161373E0,2.229512453E0,1.171795177E1
2.024506400E-1,1.966601133E0,2.296511650E0,1.199342537E1
2.048793900E-1,2.117348909E0,2.332403898E0,1.214177990E1
2.073081400E-1,2.236989975E0,2.298904419E0,1.222313595E1
2.097377230E-1,2.335095882E0,1.932802439E0,1.292692566E1
2.121672540E-1,2.325524569E0,1.602293849E0,1.550788403E1
2.145960040E-1,2.577069998E0,1.956730723E0,1.270678520E1
2.170248070E-1,2.670390129E0,1.190429211E0,1.115773201E1
2.194543900E-1,2.586641312E0,6.134598851E-1,1.186630630E1
2.218839210E-1,2.471785784E0,2.712862790E-1,1.237388420E1
2.243126190E-1,2.387737989E0,1.734796353E-2,1.231406307E1
2.267414210E-1,2.378166676E0,-3.750749528E-1,1.207956696E1
2.291710040E-1,2.545963287E0,-6.960122585E-1,1.190728378E1
2.316005360E-1,2.914458036E0,-8.874381185E-1,1.163898849E1
2.340292860E-1,3.067897797E0,-8.515457511E-1,1.182323551E1
2.364580360E-1,3.103790045E0,-6.457630396E-1,1.201496029E1
2.388876190E-1,3.075076103E0,-4.806582630E-1,1.206042480E1
2.413171500E-1,3.048755169E0,-2.961117923E-1,1.203410339E1
2.437459000E-1,2.967100143E0,-1.214357466E-1,1.193599796E1
2.461746500E-1,2.962314367E0,1.205384433E-1,1.175862980E1
2.486042340E-1,2.952743053E0,3.598206937E-1,1.155523968E1
2.510337650E-1,2.971885681E0,5.967101455E-1,1.127976608E1
2.534625150E-1,2.933600664E0,8.051848412E-1,1.103091240E1
2.558913170E-1,2.790031195E0,9.631111026E-1,1.078445148E1
2.583209000E-1,2.610569477E0,1.089930773E0,1.052812099E1
2.607504320E-1,2.375773668E0,1.140179992E0,1.034626579E1
2.631791290E-1,2.079063892E0,1.161715388E0,1.018804073E1
2.656079320E-1,1.760519266E0,1.133001566E0,1.003011417E1
2.680375150E-1,1.401595831E0,1.087537885E0,9.924830437E0
2.704670460E-1,1.097408295E0,1.001396298E0,9.735796928E0
2.728957960E-1,7.286145091E-1,9.056833982E-1,9.654440880E0
2.753245460E-1,3.816552162E-1,8.195417523E-1,9.826724052E0
2.777541290E-1,1.037886813E-1,7.764709592E-1,1.012821960E1
2.801836610E-1,-9.720841795E-2,7.884350419E-1,1.051615620E1
2.826124110E-1,-1.809572130E-1,8.123632669E-1,1.092802143E1
2.850411610E-1,-2.072782665E-1,8.602197170E-1,1.144038391E1
2.874707440E-1,-1.761715710E-1,9.056833982E-1,1.192881870E1
2.899002750E-1,-5.413761362E-2,9.200403094E-1,1.232842064E1
2.923290250E-1,1.396810263E-1,8.626125455E-1,1.253450203E1
2.947578270E-1,3.888336718E-1,8.338986635E-1,1.261346531E1
2.971874110E-1,7.214360237E-1,7.956135273E-1,1.259671593E1
2.996169420E-1,1.071087241E0,7.429714203E-1,1.240259838E1
3.020456400E-1,1.415952802E0,7.429714203E-1,1.215853024E1
3.044744420E-1,1.679163337E0,8.099704385E-1,1.182323551E1
3.069040250E-1,1.892423630E0,8.913264275E-1,1.146431255E1
3.093335570E-1,2.055135489E0,9.846464992E-1,1.107876873E1
3.117623070E-1,2.100599289E0,1.130608678E0,1.070997524E1
3.141910570E-1,2.083849430E0,1.269691467E0,1.045633602E1
3.166206400E-1,2.067099571E0,1.401296735E0,1.020987511E1
3.190501710E-1,1.949851394E0,1.578365684E0,1.005165005E1
3.214789210E-1,1.854138494E0,1.712363720E0,9.874580383E0
3.239076710E-1,1.731805444E0,1.884945989E0,9.613464355E0
3.263372540E-1,1.545165181E0,1.997408748E0,9.302396774E0
3.287667860E-1,1.406381488E0,2.109871387E0,8.962317467E0
3.311955360E-1,1.236191988E0,2.174477577E0,8.598608017E0
3.336243380E-1,1.059123158E0,2.205584288E0,8.272885323E0
3.360539210E-1,9.179465771E-1,2.272583246E0,7.990531921E0
3.384834520E-1,8.126623631E-1,2.310868502E0,7.808378696E0
3.409122020E-1,7.767700553E-1,2.351845503E0,7.770093441E0
3.433409520E-1,7.552346587E-1,2.404487610E0,7.815557003E0
3.457705360E-1,8.030911088E-1,2.490629196E0,7.944769382E0
3.482000670E-1,4.199403822E-1,2.347059965E0,8.160422325E0
3.506288170E-1,1.085743308E-1,2.239083767E0,8.296813011E0
3.530575670E-1,1.205384433E-1,2.162513494E0,8.339883804E0
3.554871500E-1,2.548356056E-1,2.169692039E0,8.452346802E0
3.579166820E-1,3.361915946E-1,2.184048891E0,8.622536659E0
3.603454320E-1,2.955136001E-1,2.203191519E0,8.837890625E0
3.627741820E-1,2.117647976E-1,2.222334146E0,9.034101486E0
3.652037650E-1,1.133599728E-1,2.222334146E0,9.156435013E0
3.676332960E-1,1.085743308E-1,2.270190477E0,9.276076317E0
3.700620460E-1,1.830509305E-1,2.306082726E0,9.436395645E0
3.724908480E-1,2.093719840E-1,2.341975212E0,9.642477036E0
3.749204320E-1,1.902294010E-1,2.359024048E0,9.817152977E0
3.773499630E-1,4.396811500E-2,2.325225353E0,9.984650612E0
3.797786610E-1,-1.498505175E-1,2.286940336E0,1.003729248E1
3.822074630E-1,-3.652045429E-1,2.174477577E0,1.005882835E1
3.846370460E-1,-5.473581553E-1,2.083550215E0,1.002772141E1
3.870665770E-1,-7.555337548E-1,1.995015860E0,1.000379372E1
3.894953270E-1,-9.544371367E-1,1.906481385E0,1.002532864E1
3.919240770E-1,-1.174576759E0,1.781755567E0,1.010429192E1
3.943536610E-1,-1.346860051E0,1.671685696E0,1.021226788E1
3.967831920E-1,-1.368395448E0,1.530509233E0,1.034148026E1
3.992119420E-1,-1.337288737E0,1.367797256E0,1.039172935E1
4.016406920E-1,-1.279860973E0,1.224227905E0,1.037258720E1
4.040702750E-1,-1.234397411E0,1.099501967E0,1.026730251E1
4.064998070E-1,-1.150648594E0,9.415757060E-1,1.029123116E1
4.089285570E-1,-9.421738982E-1,7.884350419E-1,1.115533924E1
4.113573070E-1,-5.330012441E-1,8.458628058E-1,1.215374470E1
4.137868900E-1,-2.407777756E-1,8.602197170E-1,1.202931786E1
4.162164210E-1,-2.455634177E-1,8.458628058E-1,1.075304604E1
4.186451710E-1,-4.803591371E-1,7.286145091E-1,9.517750740E0
4.210739730E-1,-7.842476368E-1,5.153541565E-1,8.859425545E0
4.235035570E-1,-9.469595551E-1,3.861417472E-1,8.672785759E0
4.259330880E-1,-7.483552694E-1,4.746761918E-1,8.813961983E0
4.283617860E-1,-3.771686554E-1,6.445665956E-1,9.276076317E0
4.307905880E-1,3.074777126E-1,1.056431174E0,9.556035995E0
4.332201710E-1,9.011968374E-1,1.473081470E0,9.560821533E0
4.356497020E-1,1.325025558E0,1.721935034E0,9.491430283E0
4.380784520E-1,1.571486235E0,1.992623091E0,9.436395645E0
4.405072020E-1,1.724626899E0,2.219941139E0,9.489037514E0
4.429367860E-1,1.949851394E0,2.414058924E0,9.584750175E0
4.453663170E-1,2.167598248E0,2.576770782E0,9.647262573E0
4.477950670E-1,2.174776793E0,2.617448807E0,9.654440880E0
4.502238170E-1,2.024028778E0,2.622234583E0,9.608678818E0
4.526534000E-1,1.703091502E0,2.600699186E0,9.501001358E0
4.550829320E-1,1.298704505E0,2.516950369E0,9.319147110E0
4.575116820E-1,9.418748021E-1,2.469093800E0,9.130113602E0
4.599404840E-1,5.994020700E-1,2.423630238E0,8.940781593E0
4.623700670E-1,3.026920557E-1,2.404487610E0,8.744570732E0
4.647995980E-1,4.636093974E-2,2.354238272E0,8.557929993E0
4.672282960E-1,-1.594218016E-1,2.270190477E0,8.440382957E0
4.696570980E-1,-2.527419031E-1,2.239083767E0,8.390133858E0
4.720866820E-1,-2.599203587E-1,2.169692039E0,8.337491035E0
4.745162130E-1,-2.599203587E-1,2.073979139E0,8.253742218E0
4.769449110E-1,-2.431706041E-1,1.971087694E0,8.169993401E0
4.793737130E-1,-2.024926096E-1,1.906481385E0,8.052745819E0
4.818032960E-1,-2.599203587E-1,1.805982947E0,7.978568077E0
4.842328270E-1,-3.221337497E-1,1.724327803E0,7.947162151E0
4.866615770E-1,-3.966103494E-1,1.607079506E0,7.877770424E0
4.890903270E-1,-5.114658475E-1,1.482652783E0,7.774878979E0
4.915199110E-1,-6.669993401E-1,1.351047516E0,7.578667641E0
4.939494420E-1,-8.775677085E-1,1.224227905E0,7.365406990E0
4.963781920E-1,-1.066899776E0,1.051645517E0,7.071090221E0
4.988069940E-1,-1.251147151E0,8.769695163E-1,6.728617191E0
5.012365250E-1,-1.370788217E0,6.326025128E-1,6.302694798E0
5.036660570E-1,-1.409073472E0,3.023929596E-1,5.775974751E0
5.060948070E-1,-1.456929922E0,-2.572284266E-2,5.244469166E0
5.085236090E-1,-1.567298889E0,-1.405783296E-1,4.861318111E0
5.109531920E-1,-1.617548108E0,-1.381855011E-1,4.506881237E0
5.133827230E-1,-1.694118381E0,-4.725824669E-2,4.248456478E0
5.158114210E-1,-1.780260086E0,8.913264424E-2,4.047459602E0
5.182402230E-1,-1.710868239E0,2.497508675E-1,4.040280819E0
5.206698070E-1,-1.497607827E0,4.316053987E-1,4.090530396E0
5.230993380E-1,-1.306182027E0,5.273182988E-1,4.238885403E0
5.255280880E-1,-1.042971611E0,5.656034350E-1,4.413561344E0
5.279568380E-1,-6.885347366E-1,5.201398134E-1,4.674678326E0
5.303864210E-1,-2.790629268E-1,4.603192508E-1,4.980959415E0
5.328159520E-1,2.261217386E-1,3.669991791E-1,5.361717224E0
5.352447020E-1,7.046862841E-1,2.401795685E-1,5.703890800E0
5.376734520E-1,1.095015407E0,-1.429711580E-1,5.828616619E0
5.401030360E-1,1.363310695E0,-7.223333120E-1,5.677569866E0
5.425325670E-1,1.779661894E0,-7.342974544E-1,5.984150410E0
5.449613170E-1,2.488535643E0,-1.884347796E-1,7.054340363E0
5.473901190E-1,3.276073217E0,5.344967842E-1,8.253742218E0
5.498196500E-1,3.869792461E0,1.286441326E0,9.271290779E0
5.522491820E-1,4.489832401E0,2.006979942E0,1.023858929E1
5.546779320E-1,5.124229908E0,2.500200510E0,1.114576817E1
5.571067340E-1,5.727519989E0,2.753839731E0,1.186391354E1
5.595363170E-1,6.239883423E0,2.682054996E0,1.233799171E1
5.619658480E-1,6.627819538E0,2.378166676E0,1.246032524E1
5.643945980E-1,6.668497562E0,1.913659930E0,1.229252815E1
5.668233480E-1,6.268597126E0,1.343868971E0,1.289821148E1
5.692529320E-1,5.380560875E0,7.453642488E-1,1.740629005E1
5.716824630E-1,5.088337421E0,6.493522525E-1,1.348953724E1
5.741112130E-1,4.779663086E0,7.022934556E-1,1.055204868E1
5.765399630E-1,4.150051594E0,4.339981973E-1,1.179452229E1
5.789695460E-1,3.438785315E0,-1.597209126E-1,1.286471176E1
5.813990770E-1,2.787638426E0,-8.443672657E-1,1.277378464E1
5.838278270E-1,2.577069998E0,-1.057627559E0,1.139013481E1
5.862565770E-1,2.845066071E0,-6.768696904E-1,9.807581902E0
5.886861610E-1,3.268894911E0,-1.094716340E-1,9.364610672E0
5.911156920E-1,3.714258909E0,3.430709541E-1,9.647262573E0
5.935444420E-1,3.987040758E0,7.429714203E-1,9.716654778E0
5.959731920E-1,4.185944080E0,1.123430252E0,9.453145027E0
5.984027750E-1,4.226622105E0,1.439581871E0,9.120542526E0
6.008323590E-1,4.077968121E0,1.671685696E0,8.854640007E0
6.032610570E-1,3.841078520E0,1.786840320E0,8.557929993E0
6.056898590E-1,3.587439299E0,1.813161373E0,8.150851250E0
6.081194420E-1,3.350250721E0,1.714756489E0,7.664809227E0
6.105489730E-1,3.113361359E0,1.556830287E0,7.114161015E0
6.129776710E-1,2.897708178E0,1.437189102E0,6.561119556E0
6.154064730E-1,2.720639229E0,1.377368569E0,6.012864113E0
6.178360570E-1,2.600998163E0,1.164108157E0,5.569892883E0
6.202655880E-1,2.510071039E0,8.865407705E-1,5.306682587E0
6.226943380E-1,2.610569477E0,5.177469850E-1,5.368896008E0
6.251230880E-1,2.787638426E0,2.931207791E-2,6.393621922E0
6.275526710E-1,3.154039383E0,-4.277170599E-1,7.466204643E0
6.299822020E-1,3.328715324E0,-8.276175261E-1,7.530810833E0
6.324109520E-1,2.955136061E0,-1.162911773E0,6.168397903E0
6.348397020E-1,2.208276272E0,-1.457229018E0,4.878067970E0
6.372692860E-1,1.571486235E0,-1.727917075E0,4.083351612E0
6.396988170E-1,1.138086319E0,-2.038984060E0,3.427120209E0
6.421275670E-1,9.251250625E-1,-2.338385820E0,2.890828848E0
6.445563690E-1,7.743772268E-1,-2.582453728E0,2.364407778E0
6.469859000E-1,7.118647099E-1,-2.726322412E0,1.758425593E0
6.494154320E-1,5.994020700E-1,-2.817249537E0,1.188634634E0
6.518441820E-1,5.371887088E-1,-2.836392164E0,8.057830334E-1
6.542729840E-1,5.682953596E-1,-2.802892685E0,5.925226808E-1
6.567025670E-1,6.137589812E-1,-2.800499916E0,6.861419082E-1
6.591320980E-1,6.831508875E-1,-2.867498875E0,1.159920812E0
6.615607960E-1,8.892326951E-1,-2.929712296E0,1.797009826E0
6.639895980E-1,1.181157112E0,-2.855534792E0,2.613261461E0
6.664191820E-1,1.616949916E0,-2.644667149E0,3.554239035E0
6.688487130E-1,2.057528257E0,-2.283350945E0,4.514060020E0
6.712774630E-1,2.426322222E0,-1.852343798E0,5.452644825E0
6.737062130E-1,2.718246460E0,-1.457229018E0,6.271588326E0
6.761357960E-1,2.962314367E0,-1.040877819E0,6.802794933E0
6.785653270E-1,3.127718210E0,-7.821539044E-1,7.095018387E0
6.809940770E-1,3.338286638E0,-6.888338327E-1,7.114161015E0
6.834228270E-1,3.573082447E0,-8.276175261E-1,6.941877365E0
6.858524110E-1,3.814757586E0,-1.162911773E0,6.541976929E0
6.882819420E-1,4.032504559E0,-1.653739572E0,6.146862507E0
6.907106920E-1,4.229014874E0,-2.230708838E0,5.773581982E0
6.931394420E-1,4.386941433E0,-2.802892685E0,5.500501156E0
6.955690250E-1,4.520939350E0,-3.355933666E0,5.383252621E0
6.979985570E-1,4.671986103E0,-3.830011845E0,5.402395248E0
7.004273070E-1,4.851448059E0,-4.236791611E0,5.488536835E0
7.028561090E-1,5.018945694E0,-4.497908592E0,5.584249973E0
7.052856920E-1,5.155336380E0,-4.624728203E0,5.663212776E0
7.077152230E-1,5.399703503E0,-4.627120972E0,5.665606022E0
7.101439210E-1,5.768198013E0,-4.459623337E0,5.622535229E0
7.125727230E-1,6.065207005E0,-4.090829372E0,5.574678421E0
7.150023070E-1,6.505785465E0,-3.578466177E0,5.438287735E0
7.174318380E-1,6.915257454E0,-3.118745327E0,5.237290382E0
7.198605880E-1,7.154539585E0,-2.601596355E0,5.091029167E0
7.222893380E-1,7.231110096E0,-1.967199326E0,4.978566647E0
7.247189210E-1,7.326822758E0,-1.672882080E0,4.765605450E0
7.271484520E-1,7.575975418E0,-1.308874011E0,4.698606491E0
7.295772020E-1,7.714759350E0,-1.557727575E0,4.667499542E0
7.320059520E-1,8.255836487E0,-9.424729943E-1,4.954638481E0
7.344355360E-1,9.043374062E0,-2.811566554E-2,4.885246754E0
7.368650670E-1,9.433703423E0,-1.794616925E-3,5.038387299E0
7.392938170E-1,9.608379364E0,-7.797610760E-1,5.148756027E0
7.417225670E-1,1.002263641E1,-1.483550072E0,5.316253662E0
7.441521500E-1,1.055892849E1,-2.139482498E0,5.390431404E0
7.465816820E-1,1.130339527E1,-2.615953445E0,5.488536835E0
7.490104320E-1,1.221087265E1,-2.977568626E0,5.809474468E0
7.514392340E-1,1.322842121E1,-2.599203587E0,6.558726788E0
7.538688170E-1,1.441825199E1,-1.088734269E0,7.427919865E0
7.562983480E-1,1.524886036E1,-5.261218548E-1,7.674380302E0
7.587270460E-1,1.586411476E1,-4.974080026E-1,7.291229725E0
7.611558480E-1,1.636929893E1,-8.228318691E-1,7.545167923E0
7.635854320E-1,1.686491394E1,-1.392622828E0,8.349455833E0
7.660149630E-1,1.740599060E1,-1.821237087E0,8.828319550E0
7.684436610E-1,1.820100594E1,-1.964806437E0,9.355039597E0
7.708724630E-1,1.883061600E1,-2.043769598E0,9.824331284E0
7.733015770E-1,1.935972977E1,-1.991127491E0,9.865009308E0
7.757311090E-1,1.991037750E1,-1.349551916E0,1.027448177E1
7.781603270E-1,2.053759766E1,-1.238285750E-1,1.049222851E1
7.805890770E-1,2.117917252E1,8.291130662E-1,1.074586773E1
7.830186610E-1,2.159103775E1,1.566401482E0,1.085862923E1
7.854481920E-1,2.178964043E1,1.887338877E0,1.134227848E1
7.878769420E-1,2.178724861E1,2.330011129E0,1.169163036E1
7.903056920E-1,2.191406822E1,2.677269459E0,1.216331577E1
7.927352750E-1,2.190688896E1,2.871088028E0,1.312582874E1
7.951648070E-1,2.178006935E1,2.734697104E0,1.361187077E1
7.975935570E-1,2.133231354E1,2.224726915E0,1.408564949E1
8.000223070E-1,2.060220337E1,1.676471353E0,1.435633755E1
8.024518900E-1,1.975215340E1,1.229013562E0,1.433719540E1
8.048814210E-1,1.887847328E1,8.147560954E-1,1.436830139E1
8.073101710E-1,1.791596031E1,5.081757307E-1,1.434915924E1
8.097389730E-1,1.683380699E1,1.468594968E-1,1.425823212E1
8.121685570E-1,1.566311836E1,-2.626122832E-1,1.457169151E1
8.145980880E-1,1.454985714E1,-5.213362575E-1,1.446162224E1
8.170267860E-1,1.365703487E1,-7.271189690E-1,1.373151207E1
8.194555880E-1,1.286441231E1,-1.074377418E0,1.236192036E1
8.218851710E-1,1.212951756E1,-1.478764415E0,1.076770210E1
8.243147020E-1,1.138235855E1,-1.864308000E0,9.402895927E0
8.267434520E-1,1.053260708E1,-2.211566210E0,8.239385605E0
8.291722020E-1,9.675378799E0,-2.551347256E0,7.401598454E0
8.316017860E-1,8.952446938E0,-2.826820850E0,6.989734173E0
8.340313170E-1,8.408976555E0,-3.200101137E0,6.604190350E0
8.364600670E-1,8.021040916E0,-3.576073408E0,6.422336102E0
8.388888170E-1,7.774580002E0,-3.920938969E0,6.132505417E0
8.413184000E-1,7.575975418E0,-4.064508438E0,5.864509106E0
8.437479320E-1,7.049255371E0,-4.454837322E0,5.239683151E0
8.461766820E-1,6.570391655E0,-4.923830986E0,4.789533615E0
8.486054320E-1,6.163312912E0,-5.256732464E0,4.586143494E0
8.510350150E-1,5.837889194E0,-5.553741455E0,4.222135544E0
