"Time (s)","Acceleration x (m/s^2)","Acceleration y (m/s^2)","Acceleration z (m/s^2)"
1.419376700E-2,-3.439682424E-1,-9.719047546E0,1.782652885E-1
1.640331400E-2,-5.383850932E-1,-9.728020668E0,5.742774159E-2
1.870695100E-2,-6.945167780E-1,-9.694520950E0,-1.100698411E-1
2.096753000E-2,-9.026923180E-1,-9.702896118E0,-2.356930375E-1
2.321952400E-2,-1.177866936E0,-9.592825890E0,-3.457628787E-1
2.547239300E-2,-1.439282775E0,-9.463613510E0,-4.372883439E-1
2.772422300E-2,-1.604985833E0,-9.381659508E0,-5.808576941E-1
2.997642000E-2,-1.680359721E0,-9.376873970E0,-6.047859192E-1
3.222941100E-2,-1.761117458E0,-9.486345291E0,-6.873382926E-1
3.448209700E-2,-1.879562140E0,-9.524032593E0,-7.214360237E-1
3.673496600E-2,-1.941775560E0,-9.528818130E0,-7.028916478E-1
3.898887200E-2,-2.008176327E0,-9.509675026E0,-6.311069727E-1
4.124180100E-2,-2.057229280E0,-9.476774216E0,-4.253242314E-1
4.349546400E-2,-2.129612207E0,-9.501300812E0,-1.818545163E-1
4.574808900E-2,-2.178066730E0,-9.497113228E0,-1.016949583E-2
4.799650200E-2,-2.236690998E0,-9.482755661E0,2.243271172E-1
5.025529000E-2,-2.318047047E0,-9.583254814E0,3.475574851E-1
5.250608400E-2,-2.375474691E0,-9.645467758E0,3.804588020E-1
5.476066000E-2,-2.389831543E0,-9.650253296E0,4.283152521E-1
5.701352900E-2,-2.313859463E0,-9.540781975E0,4.193421602E-1
5.926719200E-2,-2.227717876E0,-9.425926208E0,3.439682424E-1
6.151737500E-2,-2.151147604E0,-9.330811501E0,2.590230405E-1
6.376084300E-2,-2.022533417E0,-9.202198029E0,1.459621787E-1
6.602622400E-2,-1.931606054E0,-9.072985649E0,-1.196411322E-3
6.827933700E-2,-1.826321840E0,-8.973084450E0,-5.264209956E-2
7.053519700E-2,-1.744965911E0,-8.967700958E0,-1.818545163E-1
7.278476900E-2,-1.691127419E0,-8.924630165E0,-4.348955154E-1
7.503867500E-2,-1.652842283E0,-8.929415703E0,-5.156532526E-1
7.729191000E-2,-1.652842283E0,-8.981459618E0,-5.210371017E-1
7.954551200E-2,-1.685145378E0,-9.043074608E0,-6.939185858E-1
8.179917300E-2,-1.789233088E0,-9.181260109E0,-7.621139884E-1
8.405112600E-2,-2.166102648E0,-9.395418167E0,-5.497509837E-1
8.630094300E-2,-2.440679073E0,-9.504291534E0,-7.286145091E-1
8.854044500E-2,-2.438884497E0,-9.594022751E0,-9.876375198E-1
9.079715900E-2,-2.364108801E0,-9.565906525E0,-8.099704385E-1
9.306327200E-2,-2.321636200E0,-9.509077072E0,-7.710871100E-1
9.531980300E-2,-2.292922258E0,-9.390034676E0,-7.513462901E-1
9.757316000E-2,-2.207977057E0,-9.261420250E0,-7.214360237E-1
9.982364900E-2,-2.122433662E0,-9.195018768E0,-6.532405615E-1
1.020751140E-1,-2.061416626E0,-9.228518486E0,-5.527420044E-1
1.043253570E-1,-1.928016901E0,-9.224330902E0,-5.617151260E-1
1.065821930E-1,-1.766501307E0,-9.233902931E0,-5.706881881E-1
1.088353060E-1,-1.557727575E0,-9.177073479E0,-5.551348329E-1
1.110894570E-1,-1.329213023E0,-9.172885895E0,-5.874379873E-1
1.133416550E-1,-1.162313581E0,-9.230313301E0,-5.922235847E-1
1.155918380E-1,-9.200403094E-1,-9.244669914E0,-6.197410822E-1
1.178356710E-1,-6.819544435E-1,-9.197412491E0,-6.711867452E-1
1.201006870E-1,-4.624129832E-1,-9.144769669E0,-8.327022791E-1
1.223550810E-1,-2.626122832E-1,-9.068798065E0,-8.697910309E-1
1.246102690E-1,-1.004985496E-1,-9.006584167E0,-1.007378340E0
1.268602680E-1,2.333002165E-2,-8.968298912E0,-1.034895778E0
1.291129540E-1,1.854437590E-1,-8.968897820E0,-1.077368379E0
1.313667990E-1,2.901297510E-1,-8.978468895E0,-1.158126116E0
1.336198520E-1,3.906283081E-1,-8.978468895E0,-1.201196909E0
1.358732700E-1,5.054838061E-1,-9.011369705E0,-1.325025558E0
1.381260160E-1,5.581258535E-1,-9.064012527E0,-1.363310695E0
1.403789450E-1,5.868397355E-1,-9.178269386E0,-1.435693622E0
1.426305330E-1,5.724828243E-1,-9.287740707E0,-1.446461320E0
1.448799220E-1,5.826523304E-1,-9.363713264E0,-1.465603828E0
1.471382840E-1,6.017948985E-1,-9.397212982E0,-1.585245013E0
1.493915180E-1,6.263213158E-1,-9.449256897E0,-1.662413478E0
1.516428610E-1,6.550351977E-1,-9.444471359E0,-1.700100541E0
1.538852930E-1,6.173482537E-1,-9.415757179E0,-1.733600020E0
1.561504920E-1,5.599204898E-1,-9.420542717E0,-1.729412556E0
1.584038480E-1,5.365904570E-1,-9.387042999E0,-1.748555183E0
1.606599510E-1,4.983053207E-1,-9.406186104E0,-1.729412556E0
1.629103170E-1,4.408775866E-1,-9.410971642E0,-1.691725612E0
1.651631860E-1,3.834498227E-1,-9.444471359E0,-1.605584025E0
1.674162990E-1,3.595215976E-1,-9.463613510E0,-1.558325768E0
1.696691070E-1,2.685943544E-1,-9.473184586E0,-1.477568030E0
1.719230130E-1,2.159522474E-1,-9.497113228E0,-1.386640668E0
1.741758810E-1,1.399801224E-1,-9.482755661E0,-1.363310695E0
1.764289340E-1,5.862415582E-2,-9.492327690E0,-1.296909928E0
1.786818630E-1,2.572284266E-2,-9.544371605E0,-1.335195065E0
1.809349140E-1,-3.649054468E-2,-9.573084831E0,-1.264008522E0
1.831883310E-1,-7.956135273E-2,-9.625727654E0,-1.255035520E0
1.854412610E-1,-1.316052526E-1,-9.644869804E0,-1.265205026E0
1.876913840E-1,-1.746760458E-1,-9.654440880E0,-1.246062398E0
1.899349750E-1,-1.890329868E-1,-9.649655342E0,-1.231705427E0
1.922002340E-1,-1.555334777E-1,-9.616155624E0,-1.245464206E0
1.944544450E-1,-1.034895778E-1,-9.582656860E0,-1.192822099E0
1.967099990E-1,-5.144568533E-2,-9.530612946E0,-1.206580877E0
1.989601220E-1,2.931207791E-2,-9.449256897E0,-1.214955688E0
2.012125630E-1,7.238288224E-2,-9.382855415E0,-1.228714466E0
2.034661640E-1,9.571290761E-2,-9.340383530E0,-1.180858016E0
2.057187880E-1,6.699903309E-2,-9.349954605E0,-1.118644595E0
2.079703750E-1,7.657032460E-2,-9.311669350E0,-1.118644595E0
2.102254410E-1,9.092725813E-2,-9.287740707E0,-1.103689432E0
2.124773340E-1,7.118647546E-2,-9.345169067E0,-1.056431174E0
2.147265400E-1,2.392822690E-2,-9.401998520E0,-1.042672515E0
2.169821550E-1,-4.785645381E-2,-9.540781975E0,-9.960124493E-1
2.192374040E-1,-1.286142170E-1,-9.645467758E0,-9.493523836E-1
2.214922870E-1,-2.195414752E-1,-9.783653259E0,-8.644071817E-1
2.237449120E-1,-3.433700502E-1,-9.964909554E0,-7.944171429E-1
2.259985730E-1,-4.241278172E-1,-1.013659477E1,-7.387840152E-1
2.282505870E-1,-5.389832854E-1,-1.031785107E1,-6.299105883E-1
2.305035780E-1,-6.819544435E-1,-1.047039413E1,-5.694918036E-1
2.327564470E-1,-8.297112584E-1,-1.065583706E1,-4.468596280E-1
2.350096820E-1,-9.583254457E-1,-1.081316566E1,-3.672982752E-1
2.372623060E-1,-1.086939692E0,-1.095613670E1,-2.829512656E-1
2.395159680E-1,-1.253839016E0,-1.110867882E1,-2.416750938E-1
2.417693860E-1,-1.387238979E0,-1.118046379E1,-1.657029688E-1
2.440234750E-1,-1.539781332E0,-1.126122189E1,-6.640082598E-2
2.462754280E-1,-1.734796405E0,-1.134197903E1,8.374879137E-3
2.485281740E-1,-1.911267042E0,-1.145683479E1,1.028913707E-1
2.507787240E-1,-2.130210400E0,-1.158544922E1,1.680957973E-1
2.530240850E-1,-2.335394859E0,-1.169970608E1,2.428714931E-1
2.552872690E-1,-2.510669231E0,-1.185165024E1,2.410768867E-1
2.575408700E-1,-2.696112871E0,-1.198983574E1,1.962114573E-1
2.597969120E-1,-2.843271494E0,-1.215613747E1,1.561316848E-1
2.620474010E-1,-2.975475073E0,-1.232243824E1,7.836493850E-2
2.642967900E-1,-3.084348440E0,-1.250788212E1,-3.349951655E-2
2.665545420E-1,-3.121437073E0,-1.268375492E1,-1.543370634E-1
2.688062510E-1,-3.101696253E0,-1.289312649E1,-3.182454109E-1
2.710605230E-1,-3.014358282E0,-1.313599777E1,-5.156532526E-1
2.733121100E-1,-2.918047190E0,-1.340758324E1,-6.987041831E-1
2.755660160E-1,-2.736790895E0,-1.360259819E1,-8.715856671E-1
2.778191910E-1,-2.554936409E0,-1.387418365E1,-1.020538807E0
2.800731570E-1,-2.383251429E0,-1.404586887E1,-1.097707391E0
2.823250490E-1,-2.159522533E0,-1.422293758E1,-1.159920812E0
2.845785280E-1,-1.959721804E0,-1.433719540E1,-1.179063320E0
2.868315190E-1,-1.755135417E0,-1.441376495E1,-1.130608678E0
2.890849370E-1,-1.575075507E0,-1.452862072E1,-1.039681435E0
2.913369510E-1,-1.390229940E0,-1.459143257E1,-8.961120844E-1
2.935906740E-1,-1.186241865E0,-1.463510132E1,-7.758727670E-1
2.958442140E-1,-1.021137118E0,-1.467817211E1,-6.179464459E-1
2.980979980E-1,-8.267202377E-1,-1.471226978E1,-4.929214716E-1
3.003494630E-1,-6.370890141E-1,-1.470808220E1,-3.529413342E-1
3.026030030E-1,-4.761717021E-1,-1.469910908E1,-2.566302419E-1
3.048558110E-1,-3.152543902E-1,-1.467577934E1,-1.603191197E-1
3.071095960E-1,-1.112662554E-1,-1.463330650E1,-6.819544733E-2
3.093624640E-1,5.024927482E-2,-1.459562016E1,-2.931207791E-2
3.116158810E-1,2.500499785E-1,-1.454357624E1,-3.768695518E-2
3.138688100E-1,4.354937077E-1,-1.448674679E1,-5.563312769E-2
3.161189320E-1,6.113662124E-1,-1.439163208E1,-7.298108935E-2
3.183619130E-1,7.495517135E-1,-1.432463264E1,-1.154536903E-1
3.206282720E-1,8.829515576E-1,-1.423908901E1,-1.812563092E-1
3.228811400E-1,9.924231768E-1,-1.417687607E1,-2.279163599E-1
3.251376700E-1,1.030708313E0,-1.411526108E1,-2.991028428E-1
3.273874260E-1,1.040877819E0,-1.403869057E1,-3.942175210E-1
3.296402340E-1,1.046261668E0,-1.402373505E1,-5.712863803E-1
3.318938970E-1,1.024128079E0,-1.403270817E1,-7.770691514E-1
3.341476190E-1,9.397810698E-1,-1.405603886E1,-1.001994491E0
3.363996340E-1,8.506484628E-1,-1.411705494E1,-1.232901812E0
3.386541500E-1,7.094719410E-1,-1.418764400E1,-1.487139225E0
3.409058590E-1,5.539384484E-1,-1.422533035E1,-1.755733609E0
3.431594610E-1,4.271188378E-1,-1.428634739E1,-1.991426587E0
3.454121460E-1,2.709871531E-1,-1.434317684E1,-2.169093609E0
3.476653800E-1,9.631111473E-2,-1.439940834E1,-2.385644197E0
3.499190430E-1,-6.879365444E-2,-1.445085430E1,-2.587239504E0
3.521710570E-1,-2.153540403E-1,-1.454596901E1,-2.799004316E0
3.544144040E-1,-3.475574851E-1,-1.458305740E1,-2.957528830E0
3.566778310E-1,-4.462614357E-1,-1.463988686E1,-3.121437073E0
3.589305170E-1,-5.401797295E-1,-1.463450336E1,-3.298506021E0
3.611868040E-1,-6.299105883E-1,-1.462433338E1,-3.446861029E0
3.634374150E-1,-7.387840152E-1,-1.462433338E1,-3.543172121E0
3.656903440E-1,-7.764709592E-1,-1.460459328E1,-3.638885021E0
3.679429690E-1,-8.135597110E-1,-1.460459328E1,-3.710669756E0
3.701974240E-1,-8.656035662E-1,-1.458545017E1,-3.844667673E0
3.724490100E-1,-8.835497499E-1,-1.457049561E1,-3.973880291E0
3.747029780E-1,-9.116654396E-1,-1.452742481E1,-4.088735580E0
3.769559070E-1,-9.200403094E-1,-1.448375511E1,-4.260420799E0
3.792092630E-1,-9.475577474E-1,-1.447896957E1,-4.437489510E0
3.814622540E-1,-9.708877802E-1,-1.444487190E1,-4.609772682E0
3.837151840E-1,-1.021735311E0,-1.443470287E1,-4.805984497E0
3.859668940E-1,-1.049252748E0,-1.439641762E1,-5.006382942E0
3.882114620E-1,-1.095912814E0,-1.435274887E1,-5.193023205E0
3.904617050E-1,-1.152144074E0,-1.429053497E1,-5.327021599E0
3.927273300E-1,-1.203589797E0,-1.424267864E1,-5.469992638E0
3.949825180E-1,-1.260419369E0,-1.418943787E1,-5.570491314E0
3.972374010E-1,-1.326221943E0,-1.413201046E1,-5.656632900E0
3.994880110E-1,-1.411765337E0,-1.407458305E1,-5.675775528E0
4.017403300E-1,-1.516451359E0,-1.402194023E1,-5.714060307E0
4.039935660E-1,-1.601994753E0,-1.394596863E1,-5.699703693E0
4.062474110E-1,-1.692323804E0,-1.387418365E1,-5.675775528E0
4.084996090E-1,-1.754537225E0,-1.378864002E1,-5.627320766E0
4.107538190E-1,-1.807179332E0,-1.366002655E1,-5.569294930E0
4.130056500E-1,-1.808375716E0,-1.354576874E1,-5.453841209E0
4.152556500E-1,-1.837089539E0,-1.342672634E1,-5.367101192E0
4.174984480E-1,-1.852642894E0,-1.326042461E1,-5.194219589E0
4.197645010E-1,-1.853839397E0,-1.311745358E1,-5.001597404E0
4.220176750E-1,-1.835893154E0,-1.296550941E1,-4.800002098E0
4.242717030E-1,-1.832303882E0,-1.288056469E1,-4.584050179E0
4.265246940E-1,-1.866401672E0,-1.280459213E1,-4.411168575E0
4.287776840E-1,-1.877169371E0,-1.271904850E1,-4.191029072E0
4.310315910E-1,-1.868794441E0,-1.262453270E1,-4.008575916E0
4.332836040E-1,-1.850848317E0,-1.252463150E1,-3.864408493E0
4.355362280E-1,-1.909472466E0,-1.240080357E1,-3.643670797E0
4.377900730E-1,-1.943570137E0,-1.232004547E1,-3.490530014E0
4.400433700E-1,-1.972284079E0,-1.226800156E1,-3.394218922E0
4.422976410E-1,-1.973480463E0,-1.224945736E1,-3.250649452E0
4.445494110E-1,-1.931007862E0,-1.225424290E1,-3.140579700E0
4.468025850E-1,-1.822732687E0,-1.226441288E1,-2.973082066E0
4.490552100E-1,-1.662413478E0,-1.221296692E1,-2.742174864E0
4.513053940E-1,-1.406979680E0,-1.216152096E1,-2.477767944E0
4.535485570E-1,-1.217946768E0,-1.232901859E1,-2.277369022E0
4.558145480E-1,-1.014556766E0,-1.252523041E1,-2.024327993E0
4.580682720E-1,-8.303094506E-1,-1.265504074E1,-1.770688772E0
4.603256570E-1,-5.892325640E-1,-1.276511097E1,-1.574477315E0
4.625730330E-1,-5.862415582E-2,-1.259043407E1,-1.255035520E0
4.648219330E-1,5.802595019E-1,-1.220638657E1,-7.381857634E-1
4.670803560E-1,1.271187067E0,-1.181815147E1,-1.878365725E-1
4.693324930E-1,1.963310957E0,-1.161476135E1,1.369891018E-1
4.715837740E-1,2.487937450E0,-1.143589783E1,7.046862841E-1
4.738399400E-1,2.865405083E0,-1.129950714E1,1.233500123E0
4.760934190E-1,3.285345554E0,-1.124387360E1,1.728216171E0
4.783483620E-1,3.687339783E0,-1.124088287E1,2.127219439E0
4.805995220E-1,3.903890133E0,-1.134197903E1,2.538784742E0
4.828536110E-1,4.155136585E0,-1.145264721E1,2.725425005E0
4.851052590E-1,4.417748928E0,-1.180977631E1,2.499303341E0
4.873577610E-1,4.425525665E0,-1.221416283E1,2.013560295E0
4.896083720E-1,4.238885403E0,-1.268435287E1,1.502692580E0
4.918613010E-1,4.040879250E0,-1.293559933E1,1.132403374E0
4.941051370E-1,4.043870449E0,-1.319701481E1,6.376872063E-1
4.963728980E-1,4.083950043E0,-1.331546021E1,3.212364316E-1
4.986240560E-1,4.070191383E0,-1.337228966E1,2.350948304E-1
5.008800990E-1,3.999004841E0,-1.340519047E1,1.722832322E-1
5.031301600E-1,3.844069481E0,-1.351884937E1,-1.639083475E-1
5.053833960E-1,3.637090445E0,-1.363669586E1,-5.192425251E-1
5.076366910E-1,3.401397467E0,-1.372164154E1,-8.991031051E-1
5.098897420E-1,3.185445070E0,-1.388196087E1,-1.345364571E0
5.121421840E-1,2.910868645E0,-1.397647667E1,-1.581655741E0
5.143927940E-1,2.589034081E0,-1.406620789E1,-1.822732687E0
5.166484100E-1,2.328814745E0,-1.408415413E1,-2.087139606E0
5.189017050E-1,2.078166485E0,-1.410210037E1,-2.279761791E0
5.211561610E-1,1.752144337E0,-1.420559025E1,-2.630908489E0
5.234086630E-1,1.311266780E0,-1.429532051E1,-2.915654421E0
5.256615330E-1,7.477570772E-1,-1.443649769E1,-3.215355396E0
5.279143410E-1,1.208375469E-1,-1.452563000E1,-3.333201885E0
5.301678200E-1,-5.108676553E-1,-1.468176174E1,-3.475574970E0
5.324206880E-1,-1.076171994E0,-1.470509148E1,-3.526422262E0
5.346687950E-1,-1.551745534E0,-1.470868111E1,-3.556930780E0
5.369269130E-1,-1.993819475E0,-1.465544033E1,-3.567698479E0
5.391799650E-1,-2.412563324E0,-1.446461296E1,-3.496512175E0
5.414346040E-1,-2.874976397E0,-1.425942802E1,-3.334996462E0
5.436869230E-1,-3.279961586E0,-1.401117325E1,-3.124428272E0
5.459395470E-1,-3.638885021E0,-1.371147156E1,-2.832503796E0
5.481930260E-1,-3.920639992E0,-1.340638733E1,-2.630310297E0
5.504466270E-1,-4.144967079E0,-1.309651661E1,-2.438286304E0
5.526985200E-1,-4.274777889E0,-1.280160141E1,-2.231307030E0
5.549527310E-1,-4.386044025E0,-1.250608730E1,-1.933400750E0
5.572049280E-1,-4.562514782E0,-1.214417267E1,-1.855035782E0
5.594584690E-1,-4.686343193E0,-1.176730347E1,-1.853241086E0
5.617110920E-1,-4.890929699E0,-1.153819084E1,-1.833500385E0
5.639644490E-1,-5.053641319E0,-1.148614693E1,-1.646860242E0
5.662178060E-1,-5.045266628E0,-1.123849010E1,-1.516451359E0
5.684715900E-1,-4.846064091E0,-1.061456108E1,-1.487737536E0
5.707238480E-1,-4.565505505E0,-9.975677490E0,-1.630110383E0
5.729764120E-1,-4.322634220E0,-9.541978836E0,-1.741376638E0
5.752298910E-1,-4.179663181E0,-9.217751503E0,-1.791027784E0
5.774831860E-1,-4.009772778E0,-8.946763992E0,-1.654636860E0
5.797363610E-1,-3.872783422E0,-8.704490662E0,-1.466202021E0
5.819885580E-1,-3.529413462E0,-8.661419868E0,-1.713261008E0
5.842386190E-1,-3.067598581E0,-8.757132530E0,-1.797608018E0
5.864965530E-1,-3.193820000E0,-8.591429710E0,-1.314257860E0
5.887479570E-1,-3.123231649E0,-8.539385796E0,-1.208375454E0
5.910024130E-1,-2.900100946E0,-8.425128937E0,-1.197009563E0
5.932549760E-1,-2.659024239E0,-8.316853523E0,-9.559326172E-1
5.955083340E-1,-2.351546526E0,-8.212765694E0,-6.574280262E-1
5.977613240E-1,-2.049452543E0,-8.114061356E0,-3.116651475E-1
6.000137040E-1,-1.698904037E0,-7.914859295E0,-2.392822644E-3
6.022677330E-1,-1.401595831E0,-7.677969456E0,3.110669553E-1
6.045217610E-1,-1.061216831E0,-7.473981380E0,6.299105883E-1
6.067735920E-1,-7.393822074E-1,-7.332206726E0,9.332008362E-1
6.090264600E-1,-5.144568682E-1,-7.191030025E0,1.509272933E0
6.112795730E-1,-4.133601189E-1,-7.035496712E0,2.132004976E0
6.135316480E-1,-7.776673418E-3,-7.087540627E0,1.794018745E0
6.157803050E-1,6.921239495E-1,-7.067201614E0,7.495517135E-1
6.180385450E-1,8.464609981E-1,-7.190432072E0,3.523431420E-1
6.202920860E-1,8.955138922E-1,-7.284948349E0,8.434699476E-2
6.225478230E-1,8.763712645E-1,-7.290332317E0,1.896311939E-1
6.247986160E-1,8.757730722E-1,-7.123433113E0,2.482553422E-1
6.270529490E-1,9.756734371E-1,-7.018746853E0,2.679961324E-1
6.293045360E-1,1.037886858E0,-6.951747894E0,1.782652885E-1
6.315580750E-1,1.022931695E0,-6.899703979E0,3.026920557E-1
6.338107000E-1,1.013360381E0,-6.832705021E0,2.602194548E-1
6.360635690E-1,1.130608678E0,-6.683752060E0,-2.835494876E-1
6.383175370E-1,1.356730461E0,-6.397211552E0,-8.117650747E-1
6.405716250E-1,1.097109199E0,-6.288337708E0,-3.337987661E-1
6.428237610E-1,5.611169338E-1,-6.584449768E0,3.696911037E-1
6.450767520E-1,3.768695593E-1,-6.678966045E0,1.531406492E-1
6.473293770E-1,2.015953064E-1,-6.578467846E0,-4.785645287E-3
6.495827340E-1,-2.691925503E-2,-6.492326260E0,3.768695518E-2
6.518354800E-1,-2.733799815E-1,-6.372684956E0,-7.716853172E-2
6.540888370E-1,-5.485545993E-1,-6.262615204E0,-1.686939895E-1
6.563419510E-1,-8.051848412E-1,-6.171089649E0,-3.026920557E-1
6.585966510E-1,-1.056431174E0,-6.051448345E0,-4.229314029E-1
6.608485430E-1,-1.298106313E0,-5.993422508E0,-5.479564071E-1
6.631017770E-1,-1.497308731E0,-5.873781204E0,-6.771687865E-1
6.653542790E-1,-1.696511269E0,-5.778068542E0,-7.154539824E-1
6.676077580E-1,-1.871785522E0,-5.681757450E0,-8.829515576E-1
6.698608100E-1,-1.936989903E0,-5.605186939E0,-1.169492126E0
6.721127020E-1,-2.030908108E0,-5.518447399E0,-1.403988719E0
6.743636180E-1,-2.125424623E0,-5.470590591E0,-1.518844128E0
6.766211250E-1,-2.172084808E0,-5.455635548E0,-1.585843205E0
6.788732620E-1,-2.239083767E0,-5.450850010E0,-1.548156261E0
6.811274730E-1,-2.392224550E0,-5.556134224E0,-1.314856052E0
6.833792430E-1,-2.478964329E0,-5.656632900E0,-1.095912814E0
6.856308290E-1,-2.480160713E0,-5.685945034E0,-9.523434043E-1
6.878788760E-1,-2.499901533E0,-5.695516109E0,-7.615157962E-1
6.901413870E-1,-2.486142635E0,-5.748157978E0,-6.610172391E-1
6.923918770E-1,-2.472383976E0,-5.810371399E0,-6.329016089E-1
6.946477350E-1,-2.381456852E0,-5.872584820E0,-6.568298340E-1
6.968977960E-1,-2.276770830E0,-5.896512985E0,-6.897311211E-1
6.991520690E-1,-2.176272154E0,-5.900700569E0,-8.141579032E-1
7.014012140E-1,-2.028515339E0,-5.863013744E0,-9.230313301E-1
7.036446230E-1,-1.862214208E0,-5.791228771E0,-9.218349457E-1
7.059105530E-1,-1.738983870E0,-5.748756409E0,-8.590233326E-1
7.081636040E-1,-1.620539188E0,-5.663811207E0,-7.573283911E-1
7.104203180E-1,-1.511665702E0,-5.549553871E0,-6.364908218E-1
7.126709890E-1,-1.546959877E0,-5.492724419E0,-3.637090325E-1
7.149199530E-1,-1.628913999E0,-5.450850010E0,-8.195417374E-2
7.171630550E-1,-1.673181176E0,-5.341378212E0,1.579262912E-1
7.194285580E-1,-1.712064624E0,-5.203791142E0,3.116651475E-1
7.216824640E-1,-1.785045743E0,-4.994419098E0,5.186443329E-1
7.239389340E-1,-1.722832322E0,-4.727619171E0,4.869394004E-1
7.261889340E-1,-1.699502230E0,-4.479363918E0,5.365904570E-1
7.284420470E-1,-1.661815286E0,-4.184448719E0,5.623133183E-1
7.306961360E-1,-1.667199135E0,-3.917648792E0,6.358926296E-1
7.329479670E-1,-1.619342685E0,-3.664607763E0,5.754738450E-1
7.352008370E-1,-1.547558069E0,-3.383451223E0,4.486542344E-1
7.374541320E-1,-1.485942841E0,-3.111267567E0,3.649054468E-1
7.397073660E-1,-1.366301775E0,-2.863610506E0,1.800599098E-1
7.419605400E-1,-1.194018483E0,-2.667398930E0,-4.247260094E-2
7.442132260E-1,-1.055234790E0,-2.448455811E0,-1.746760458E-1
7.464671940E-1,-9.457631707E-1,-2.267199516E0,-2.111666054E-1
7.487210380E-1,-8.602197170E-1,-2.124228239E0,-2.961117923E-1
7.509698170E-1,-8.213363886E-1,-2.042872429E0,-3.906283081E-1
7.532128590E-1,-8.111668825E-1,-1.985444546E0,-5.144568682E-1
