"Time (s)","X (rad/s)","Y (rad/s)","Z (rad/s)"
1.131375000E-2,-4.054124057E-1,5.533028245E-1,-4.925482273E-1
2.135474997E-2,-5.658667684E-1,4.739212096E-1,-6.268035173E-1
3.139675001E-2,-7.159364223E-1,3.763628304E-1,-7.175306678E-1
4.143774998E-2,-8.470227718E-1,3.238815069E-1,-7.881696820E-1
5.147975002E-2,-9.401624203E-1,3.450200856E-1,-8.487167954E-1
6.152074999E-2,-1.025825858E0,4.019033611E-1,-9.021635056E-1
7.156274997E-2,-1.130677581E0,4.932977557E-1,-9.513157010E-1
8.160375000E-2,-1.249494433E0,5.766107440E-1,-9.611805677E-1
9.164574998E-2,-1.310815573E0,6.914783120E-1,-8.813980222E-1
1.016877500E-1,-1.425016642E0,9.202688932E-1,-7.644876242E-1
1.117287500E-1,-1.335518122E0,1.148591161E0,-5.806910396E-1
1.217707500E-1,-1.256079197E0,1.015371084E0,-3.879114389E-1
1.318117500E-1,-1.212723970E0,8.017197847E-1,-2.371472269E-1
1.418537500E-1,-1.188855886E0,5.644521117E-1,-2.027381212E-1
1.518947500E-1,-1.188399673E0,4.167656302E-1,-1.602392942E-1
1.619367500E-1,-1.185807943E0,2.497446835E-1,-4.155818373E-2
1.719777500E-1,-1.194941878E0,-3.295062855E-2,1.135620400E-1
1.820197500E-1,-1.226791382E0,-2.660624683E-1,2.178519517E-1
1.920607500E-1,-1.359374642E0,-7.098991275E-1,3.007882535E-1
2.021027500E-1,-1.529962182E0,-1.318583012E0,2.173415720E-1
2.121437500E-1,-1.784694076E0,-2.049908876E0,6.673658639E-2
2.221857500E-1,-2.036131382E0,-2.235867023E0,-2.787023187E-1
2.322267500E-1,-2.160185099E0,-2.285624266E0,-5.732232332E-1
2.422687500E-1,-2.259413004E0,-2.003334045E0,-8.122392893E-1
2.523097500E-1,-2.253116846E0,-1.822615981E0,-8.505256772E-1
2.623517500E-1,-2.064889431E0,-1.667120934E0,-6.508826017E-1
2.723927500E-1,-1.699945331E0,-1.519313812E0,-3.826600909E-1
2.824347500E-1,-1.257918596E0,-1.311817050E0,-2.480985224E-1
2.924757500E-1,-8.925632238E-1,-1.153513074E0,-1.827503145E-1
3.025177500E-1,-6.580580473E-1,-9.223292470E-1,-2.000544816E-1
3.125587500E-1,-5.909749269E-1,-4.621966481E-1,-2.761948407E-1
3.226007500E-1,-5.444779992E-1,2.174503207E-1,-3.218171597E-1
3.326417500E-1,-4.407930970E-1,6.865474582E-1,-2.899874151E-1
3.426837500E-1,-3.758527040E-1,9.535637498E-1,-2.459358126E-1
3.527247500E-1,-3.087354898E-1,1.052359223E0,-2.249004394E-1
3.627667500E-1,-2.618246973E-1,8.953903317E-1,-1.859786063E-1
3.728077500E-1,-1.757008731E-1,4.902737737E-1,-1.009588093E-1
3.828497500E-1,1.262269169E-2,2.454977855E-2,5.394262262E-3
3.928907500E-1,1.926840991E-1,-2.520754337E-1,9.772428125E-2
4.029327500E-1,3.252538741E-1,-1.302193105E-1,1.481307298E-1
4.129737500E-1,4.037839472E-1,2.126053721E-1,9.089346975E-2
4.230157500E-1,2.517637908E-1,1.156063899E-1,-9.377438575E-2
4.330567500E-1,7.301436365E-2,-2.249806672E-1,-1.213483214E-1
4.430987500E-1,-7.412341982E-2,-5.510362983E-1,-2.510727569E-2
4.531397500E-1,8.731612004E-3,-3.269193172E-1,1.688214391E-1
4.631817500E-1,2.416916341E-1,-2.655854225E-1,2.166925669E-1
4.732227500E-1,3.551727831E-1,-6.149430275E-1,2.444228828E-1
4.832647500E-1,4.734951556E-1,-9.706944823E-1,3.073773682E-1
4.933057500E-1,5.469488502E-1,-1.236917138E0,3.238438070E-1
5.033477500E-1,5.981521010E-1,-1.430715203E0,2.774890959E-1
5.133887500E-1,5.785018802E-1,-1.454362035E0,1.683618128E-1
5.234310000E-1,4.881805182E-1,-1.488589287E0,1.059615612E-2
5.334720000E-1,3.402165771E-1,-1.692875266E0,-1.321446449E-1
5.435140000E-1,1.401426047E-1,-1.902530789E0,-2.417036295E-1
5.535560000E-1,-8.834122121E-2,-2.029877663E0,-3.034285307E-1
5.635970000E-1,-2.959412932E-1,-2.027550697E0,-2.697730958E-1
5.736390000E-1,-4.434402883E-1,-1.916574597E0,-1.884176582E-1
5.836800000E-1,-4.987743795E-1,-1.885143161E0,-1.855824590E-1
5.937220000E-1,-5.183538198E-1,-1.950458527E0,-1.979483813E-1
6.037630000E-1,-5.069866180E-1,-1.968754172E0,-1.783113033E-1
6.138050000E-1,-4.759092331E-1,-1.949007630E0,-1.236111149E-1
6.238460000E-1,-4.187644422E-1,-2.052238464E0,-2.798152715E-2
6.338880000E-1,-3.528739512E-1,-2.045321465E0,1.005267575E-1
6.439290000E-1,-2.650399506E-1,-2.058697701E0,1.278214902E-1
6.539710000E-1,-2.381147742E-1,-2.149965525E0,1.416700482E-1
6.640120000E-1,-1.987756193E-1,-2.018698215E0,1.430610120E-1
6.740540000E-1,-2.063156813E-1,-1.784720182E0,4.835827276E-3
6.840950000E-1,-2.537955642E-1,-1.558009028E0,-1.550662220E-1
6.941370000E-1,-2.882227898E-1,-1.308437228E0,-2.470632046E-1
7.041780000E-1,-2.503127158E-1,-9.846524596E-1,-1.875910908E-1
7.142200000E-1,-1.935028583E-1,-6.557644010E-1,-1.289181560E-1
7.242610000E-1,-3.272809088E-2,-4.427618384E-1,-9.602919221E-2
7.343030000E-1,-1.817305200E-2,-3.280994892E-1,-7.040138543E-2
7.443440000E-1,-8.412969112E-2,-4.088305533E-1,6.618566811E-3
7.543860000E-1,-2.201193571E-1,-4.237409532E-1,1.562388390E-1
7.644270000E-1,-3.752585948E-1,-4.931996763E-1,2.443346083E-1
7.744690000E-1,-5.020551085E-1,-5.415965915E-1,2.789919674E-1
7.845100000E-1,-5.612359047E-1,-5.048550963E-1,2.784055471E-1
7.945520000E-1,-5.495229959E-1,-3.657258153E-1,1.971430779E-1
8.045930000E-1,-5.300246477E-1,-2.343717664E-1,1.364613622E-1
8.146350000E-1,-5.578662753E-1,-2.095420808E-1,1.320175380E-1
8.246760000E-1,-6.127089858E-1,-2.122790068E-1,1.841965765E-1
8.347180000E-1,-6.203407645E-1,-1.404000819E-1,2.206288278E-1
8.447590000E-1,-6.121464968E-1,-9.824518114E-2,2.425104231E-1
8.548010000E-1,-6.926859617E-1,-2.588220239E-1,2.544172406E-1
8.648420000E-1,-7.669495344E-1,-3.745574057E-1,4.657952487E-1
8.748840000E-1,-7.654464841E-1,-4.729317129E-1,7.159920335E-1
8.849250000E-1,-7.091475129E-1,-6.067305207E-1,8.802534342E-1
8.949670000E-1,-5.761886239E-1,-7.410135269E-1,8.991425633E-1
9.050080000E-1,-4.174621105E-1,-8.580386639E-1,8.273053765E-1
9.150500000E-1,-2.595002651E-1,-8.299803734E-1,8.176167011E-1
9.250910000E-1,-9.833000600E-2,-7.209641337E-1,8.293135166E-1
9.351330000E-1,-2.742430195E-3,-7.611028552E-1,8.171665668E-1
9.451740000E-1,1.857111417E-2,-8.495714664E-1,8.060965538E-1
9.552160000E-1,-4.009815399E-3,-1.005330563E0,8.348218799E-1
9.652570000E-1,-4.843586683E-2,-1.378112435E0,9.021423459E-1
9.752990000E-1,-4.886217043E-2,-1.815944672E0,9.667156935E-1
9.853400000E-1,5.567780696E-3,-2.115740299E0,9.848486185E-1
9.953820000E-1,1.049275026E-1,-2.303393126E0,9.446297288E-1
1.005424000E0,1.901273578E-1,-2.421176910E0,7.966498733E-1
1.015465000E0,2.559864521E-1,-2.523658276E0,6.524090171E-1
1.025507000E0,3.181653917E-1,-2.477709055E0,5.980123878E-1
1.035548000E0,3.954637349E-1,-2.406061411E0,6.058782935E-1
1.045590000E0,4.234447777E-1,-2.537829638E0,6.185543537E-1
1.055631000E0,3.424419761E-1,-2.960922718E0,6.369912028E-1
1.065673000E0,2.250085473E-1,-3.120822668E0,7.409695387E-1
1.075714000E0,1.272300482E-1,-2.896046400E0,9.487126470E-1
1.085756000E0,-7.314178627E-3,-2.618635178E0,1.165443301E0
1.095797000E0,-2.801980972E-1,-2.100105762E0,1.372359872E0
1.105839000E0,-7.690753937E-1,-1.322437882E0,1.467237115E0
1.115880000E0,-1.317625403E0,-7.885418534E-1,1.415581226E0
1.125922000E0,-1.607174158E0,-4.614000022E-1,1.324493170E0
1.135963000E0,-1.585098028E0,-3.277518749E-1,1.190916896E0
1.146005000E0,-1.351503015E0,-7.060810924E-1,1.040112972E0
1.156046000E0,-1.051391125E0,-1.442791939E0,1.009677887E0
1.166088000E0,-7.837263346E-1,-2.161463737E0,9.982973933E-1
1.176129000E0,-6.073769331E-1,-2.751666069E0,9.825899005E-1
1.186171000E0,-5.803519487E-1,-2.813735723E0,9.502272010E-1
1.196212000E0,-7.140819430E-1,-2.588491440E0,9.719968438E-1
1.206254000E0,-8.754506111E-1,-2.334404707E0,1.013411999E0
1.216295000E0,-8.778085113E-1,-2.100998878E0,1.069888115E0
1.226337000E0,-6.587597728E-1,-1.908137798E0,1.144245505E0
1.236378000E0,-3.414871097E-1,-1.754046440E0,1.180693984E0
1.246420000E0,-3.376630321E-2,-1.736290812E0,1.184271455E0
1.256461000E0,2.448695600E-1,-1.908848882E0,1.250118256E0
1.266503000E0,4.436684251E-1,-2.221737146E0,1.390910268E0
1.276544000E0,5.571179390E-1,-2.449015617E0,1.614887953E0
1.286586000E0,7.363531590E-1,-2.417560339E0,2.095976591E0
1.296627000E0,7.228691578E-1,-2.154018164E0,2.489256620E0
1.306669000E0,4.409890175E-1,-1.609631300E0,2.517619371E0
1.316710000E0,9.877622873E-2,-1.358638406E0,2.269340754E0
1.326752000E0,-2.067237645E-1,-1.185850382E0,1.933282852E0
1.336793000E0,-3.713722229E-1,-1.351071239E0,1.762909651E0
1.346835000E0,-4.153623283E-1,-1.780240893E0,1.751046538E0
1.356876000E0,-3.767668605E-1,-2.135361195E0,1.795018196E0
1.366918000E0,-2.501886785E-1,-2.368122339E0,1.858753204E0
1.376959000E0,-1.102650166E-1,-2.503369093E0,1.904877543E0
1.387001000E0,2.104986086E-2,-2.733460188E0,1.933892131E0
1.397042000E0,1.072417200E-1,-2.960540295E0,1.896558285E0
1.407084000E0,2.173399925E-1,-3.242092133E0,1.688501716E0
1.417125000E0,4.023823142E-1,-3.286956787E0,1.456064343E0
1.427167000E0,5.495775938E-1,-3.092073917E0,1.466552377E0
1.437208000E0,4.890922308E-1,-2.828541279E0,1.640144825E0
1.447250000E0,2.002537698E-1,-2.760827303E0,1.810460687E0
1.457291000E0,-3.172304481E-2,-2.961384773E0,1.903205991E0
1.467333000E0,-2.051917613E-1,-3.269661427E0,2.082684278E0
1.477375000E0,-2.956458926E-1,-3.551949739E0,2.237514734E0
1.487416000E0,-3.462483585E-1,-3.536638737E0,2.381150007E0
1.497458000E0,-3.409052789E-1,-3.268564463E0,2.568650723E0
1.507499000E0,-3.007325530E-1,-2.841733456E0,2.714231491E0
1.517541000E0,-1.484541893E-1,-2.652556658E0,2.758903265E0
1.527581500E0,1.284240186E-1,-3.025214434E0,2.622607946E0
1.537623500E0,3.836238682E-1,-3.400644779E0,2.309853554E0
1.547664500E0,6.723328829E-1,-3.655464411E0,2.069581985E0
1.557706500E0,1.105250955E0,-4.322543144E0,2.018609762E0
1.567747500E0,1.620107889E0,-4.855674267E0,2.050554514E0
1.577789500E0,2.133580446E0,-4.991937160E0,2.072926521E0
1.587830500E0,2.546841383E0,-4.882705212E0,2.053367615E0
1.597872500E0,2.780809641E0,-4.649019718E0,2.005727291E0
1.607913500E0,2.818381310E0,-4.239623070E0,1.918094635E0
1.617955500E0,2.715483665E0,-3.683210135E0,1.746567845E0
1.627996500E0,2.585625172E0,-3.179419041E0,1.400464535E0
1.638038500E0,2.500495672E0,-2.933686972E0,8.879023790E-1
1.648079500E0,2.322649717E0,-2.882471561E0,1.866931468E-1
1.658121500E0,2.043726921E0,-2.762566090E0,-3.523198962E-1
1.668162500E0,1.678376079E0,-2.540858269E0,-5.894871950E-1
1.678204500E0,1.377919316E0,-2.614183187E0,-4.278878570E-1
1.688245500E0,1.267325640E0,-2.866133690E0,-1.740814298E-1
1.698287500E0,1.296726584E0,-3.007807016E0,-5.826610699E-2
1.708328500E0,1.316533327E0,-3.213489532E0,5.478055403E-2
1.718370500E0,1.306942821E0,-3.357242107E0,7.810025662E-2
1.728411500E0,1.341656804E0,-3.295091867E0,-5.292060971E-2
1.738453500E0,1.392732382E0,-3.023051977E0,-2.881106138E-1
1.748494500E0,1.438105941E0,-2.575829029E0,-5.305213928E-1
1.758536500E0,1.435235023E0,-2.256376743E0,-7.265905738E-1
1.768577500E0,1.357856512E0,-2.309534550E0,-7.916340232E-1
1.778619500E0,1.294200063E0,-2.652100086E0,-8.008967638E-1
1.788660500E0,1.235910058E0,-2.989148855E0,-7.628383040E-1
1.798702500E0,1.157016754E0,-3.214843512E0,-6.279160380E-1
1.808743500E0,1.024580240E0,-3.236349583E0,-4.792491198E-1
1.818785500E0,8.458054066E-1,-2.930115223E0,-4.465690851E-1
1.828826500E0,7.564313412E-1,-2.502913475E0,-4.829233587E-1
1.838868500E0,8.138226867E-1,-2.096806288E0,-5.770063400E-1
1.848909500E0,8.527000546E-1,-1.878629804E0,-6.614208221E-1
1.858951500E0,8.261068463E-1,-1.851266146E0,-7.215228081E-1
1.868992500E0,7.798706293E-1,-2.102361917E0,-7.645062208E-1
1.879034500E0,7.016161680E-1,-2.423264980E0,-7.211393714E-1
1.889075500E0,5.836471915E-1,-2.635313749E0,-5.515607595E-1
1.899117500E0,4.327293932E-1,-2.611973047E0,-4.034940004E-1
1.909158500E0,7.408100367E-1,-1.732849360E0,-3.275065422E-1
1.919200500E0,8.499351740E-1,-1.283895135E0,-3.226463497E-1
1.929241500E0,9.802479148E-1,-8.977167606E-1,-4.887855351E-1
1.939283500E0,9.095004201E-1,-7.978726029E-1,-6.784546375E-1
1.949324500E0,7.818098068E-1,-1.010870934E0,-7.992902398E-1
1.959366500E0,6.969580650E-1,-1.342708588E0,-8.428968787E-1
1.969407500E0,6.980728507E-1,-1.506859422E0,-7.304909825E-1
1.979449500E0,7.091736794E-1,-1.556301832E0,-5.402551889E-1
1.989490500E0,6.138668656E-1,-1.484006405E0,-4.110335708E-1
1.999532500E0,3.919418454E-1,-1.389584064E0,-3.585104048E-1
2.009573500E0,7.374840975E-2,-1.339609385E0,-3.843867481E-1
2.019615500E0,-1.455182880E-1,-1.259924650E0,-4.185931683E-1
2.029656500E0,-2.077329159E-1,-1.073697567E0,-4.179635942E-1
2.039698500E0,-1.448483169E-1,-8.408049345E-1,-3.719557226E-1
2.049739500E0,-5.149280280E-2,-5.722443461E-1,-2.650534809E-1
2.059781500E0,-7.650646381E-3,-2.308426201E-1,-1.755024493E-1
2.069823500E0,-2.772049606E-2,-3.606275469E-2,-5.960008502E-2
2.079864500E0,-6.121849641E-2,-3.483482450E-2,8.423603326E-2
2.089906500E0,-8.539307117E-2,-1.263096035E-1,9.643410891E-2
2.099947500E0,-1.087424904E-1,-3.951727152E-1,4.135192931E-2
2.109989500E0,-2.595575750E-1,-5.460343957E-1,9.871136397E-2
2.120030500E0,-2.670398355E-1,-6.224843860E-1,1.359679848E-1
2.130072500E0,-1.093128026E-1,-6.220713258E-1,1.201264411E-1
2.140113500E0,-2.427334338E-2,-4.920634329E-1,1.205131859E-1
2.150155500E0,-2.396681346E-2,-4.227759838E-1,1.041472629E-1
2.160196500E0,-5.645384640E-2,-4.481349587E-1,2.119532973E-2
2.170238500E0,-6.223770231E-2,-6.239699125E-1,-5.572208762E-2
2.180279500E0,-9.071425349E-2,-7.399927378E-1,-4.083232582E-2
2.190321500E0,-1.940321177E-1,-8.749228120E-1,8.302650601E-2
2.200362500E0,-3.623401225E-1,-1.083660841E0,2.674344182E-1
2.210404500E0,-5.102525949E-1,-1.139501929E0,3.102417886E-1
2.220445500E0,-5.027491450E-1,-9.064994454E-1,4.236946255E-2
2.230487500E0,-3.425820768E-1,-6.226184964E-1,-1.866027266E-1
2.240528500E0,-1.258086562E-1,-2.833681107E-1,-2.366819419E-2
2.250570500E0,-6.751339138E-2,1.375961602E-1,2.611257434E-1
2.260611500E0,-1.299166381E-1,-3.448776156E-2,2.156852782E-1
2.270653500E0,-1.706771106E-1,-1.716293693E-1,-1.813253760E-2
2.280694500E0,-3.524422348E-1,-4.815304875E-1,-2.446401417E-1
2.290736500E0,-5.383284688E-1,-7.540728450E-1,-3.836739361E-1
2.300777500E0,-6.680881977E-1,-9.622756839E-1,-4.572066963E-1
2.310819500E0,-7.066587210E-1,-1.080469728E0,-3.930215836E-1
2.320860500E0,-6.611965895E-1,-1.165419579E0,-1.788163036E-1
2.330902500E0,-5.014825463E-1,-1.097024560E0,-7.386778295E-2
2.340943500E0,-2.878714800E-1,-9.385296106E-1,-1.715506166E-1
2.350985500E0,-5.540948361E-2,-1.004072785E0,-2.151313871E-1
2.361026500E0,1.475356072E-1,-1.175984502E0,-1.837501079E-1
2.371068500E0,3.145762682E-1,-1.413356781E0,-1.191170588E-1
2.381109500E0,4.449507296E-1,-1.734998226E0,-6.943759322E-2
2.391151500E0,5.731701851E-1,-2.147874832E0,-9.382548928E-2
2.401192500E0,8.232390881E-1,-2.574375391E0,-1.510318518E-1
2.411234500E0,9.939253330E-1,-3.003996611E0,-1.219091192E-1
2.421275500E0,1.165060759E0,-3.207260132E0,-1.755315065E-1
2.431317500E0,1.344698429E0,-3.028026581E0,-3.031406105E-1
2.441358500E0,1.508795500E0,-2.662299871E0,-2.870956659E-1
2.451400500E0,1.507800817E0,-2.272532463E0,-1.133885980E-1
2.461441500E0,1.486239314E0,-1.845914364E0,9.204280563E-3
2.471483500E0,1.093934059E0,-1.154565215E0,2.014128715E-1
2.481524500E0,6.787826419E-1,-1.069025636E0,2.404195517E-1
2.491566500E0,4.484202862E-1,-1.024757147E0,1.590139121E-1
2.501607500E0,2.545983791E-1,-8.685193062E-1,1.781978607E-1
2.511649500E0,5.950052291E-2,-7.141566277E-1,2.750096321E-1
2.521691000E0,-4.262145981E-2,-3.818494976E-1,4.605027735E-1
2.531733000E0,-9.905198216E-2,-1.472143829E-1,6.143211126E-1
2.541774000E0,-2.247679383E-1,3.843870759E-2,6.519347429E-1
2.551816000E0,-3.438677192E-1,5.926622450E-2,6.008348465E-1
2.561857000E0,-3.623547852E-1,-1.825165451E-1,5.247288346E-1
2.571899000E0,-2.860949039E-1,-2.277127951E-1,5.488000512E-1
2.581940000E0,-2.729197443E-1,-1.266365647E-1,5.769457817E-1
2.591982000E0,-3.470205963E-1,1.129653826E-1,6.243007779E-1
2.602023000E0,-4.093170762E-1,1.708855778E-1,6.425246596E-1
2.612065000E0,-4.095186889E-1,1.934601367E-1,6.037543416E-1
2.622106000E0,-3.854749501E-1,2.296254039E-1,6.123329997E-1
2.632148000E0,-3.326580524E-1,2.312217057E-1,6.386487484E-1
2.642189000E0,-2.420200706E-1,2.893520594E-1,7.343028784E-1
2.652231000E0,-1.473193914E-1,4.174788594E-1,6.778907180E-1
2.662272000E0,-1.088500693E-1,4.174966514E-1,5.964731574E-1
2.672314000E0,-1.359181702E-1,3.160115778E-1,5.570753813E-1
2.682355000E0,-1.309327930E-1,4.273766875E-1,5.392924547E-1
2.692397000E0,-1.443556547E-1,7.086147070E-1,5.086096525E-1
2.702439000E0,-2.287578136E-1,9.326146841E-1,4.427380562E-1
2.712480000E0,-2.284542173E-1,7.766119838E-1,2.679188251E-1
2.722522000E0,-1.409409046E-1,5.918008089E-2,4.967475310E-3
2.732563000E0,-1.371355057E-1,-5.089874864E-1,-1.978428960E-1
2.742605000E0,-2.545467615E-1,-7.798559666E-1,-2.332051545E-1
2.752646000E0,-2.853568792E-1,-7.112811804E-1,-4.037764668E-2
2.762688000E0,-2.501885295E-1,-3.691351116E-1,2.056756616E-1
2.772729000E0,-2.462893873E-1,-1.217397004E-1,3.532254398E-1
2.782771000E0,-5.998671055E-2,6.858942099E-3,4.204266667E-1
2.792812000E0,1.187603921E-1,1.192640439E-1,3.522937000E-1
2.802854000E0,4.094476104E-1,3.827029765E-1,5.027450323E-1
2.812895000E0,7.700508237E-1,8.407847881E-1,6.383481026E-1
2.822937000E0,1.113069057E0,7.482823730E-1,6.143866181E-1
2.832978000E0,1.630162239E0,4.283999503E-1,4.590135217E-1
2.843020000E0,1.388397217E0,-7.462780923E-2,1.345362365E-1
2.853061000E0,4.906659126E-1,-7.954403162E-1,-1.382662654E-1
2.863103000E0,2.531227469E-1,-3.870296180E-1,-2.906415761E-1
2.873144000E0,-3.663501889E-2,7.720461488E-2,-2.391576320E-1
2.883186000E0,-1.914822906E-1,3.956659138E-1,-1.103643402E-1
2.893227000E0,-1.119813323E-1,5.076140165E-1,4.012583941E-2
2.903269000E0,3.788424656E-2,3.513304293E-1,1.010764614E-1
2.913310000E0,8.873890340E-2,6.582463533E-2,1.019148231E-1
2.923352000E0,3.268889710E-2,-3.613670170E-1,9.391754866E-2
2.933393000E0,-3.901325166E-2,-6.911857128E-1,8.497864753E-2
2.943435000E0,-1.051860079E-1,-7.554622889E-1,3.846429288E-2
2.953476000E0,-1.165819392E-1,-7.288706303E-1,-1.754757762E-2
2.963518000E0,-7.336356491E-2,-5.137348771E-1,8.906958997E-2
2.973559000E0,5.765223503E-2,-1.558702439E-1,2.981391847E-1
2.983601000E0,1.616025716E-1,1.534364969E-1,4.783360064E-1
2.993642000E0,2.409615815E-1,2.166886926E-1,5.494102240E-1
3.003684000E0,2.685842812E-1,1.542026103E-1,5.749259591E-1
3.013725000E0,2.274760157E-1,1.851173937E-1,5.971447229E-1
3.023767000E0,1.257110536E-1,3.111146092E-1,5.828840137E-1
3.033808000E0,3.709489852E-2,4.393990934E-1,5.461052060E-1
3.043850000E0,-1.199820265E-2,5.668154359E-1,5.058025718E-1
3.053891000E0,1.873867214E-2,5.714096427E-1,4.124092758E-1
3.063933000E0,5.882577226E-2,4.790153801E-1,3.184522986E-1
3.073974000E0,1.216785163E-1,4.147586226E-1,3.217673898E-1
3.084016000E0,1.752134860E-1,4.396024346E-1,2.896950841E-1
3.094057000E0,1.749434322E-1,3.098740280E-1,2.676800787E-1
3.104099000E0,1.670232862E-1,2.216976434E-1,2.400478125E-1
3.114140000E0,1.178469416E-2,2.050811052E-1,1.818255186E-1
3.124182000E0,-2.558497787E-1,2.025962174E-1,9.845869243E-2
3.134223000E0,-5.144632459E-1,2.070183754E-1,5.351065844E-2
3.144265000E0,-7.709983587E-1,2.069042623E-1,3.175552189E-2
3.154306000E0,-9.575983286E-1,3.869113028E-1,-3.722309833E-3
3.164348000E0,-1.172637343E0,6.977458000E-1,1.730444282E-2
3.174389000E0,-1.424849629E0,9.767454863E-1,9.208493680E-2
3.184431000E0,-1.592957616E0,8.581028581E-1,1.745060831E-1
3.194472000E0,-1.488815427E0,3.835592568E-1,1.065605804E-1
3.204514000E0,-1.052341700E0,1.549889445E-1,-3.439361230E-2
3.214555000E0,-3.753864169E-1,-9.695342742E-3,-1.947633028E-1
3.224597000E0,3.587169349E-1,-2.723443210E-1,-2.926138639E-1
3.234638000E0,1.042945623E0,-3.088549078E-1,-2.146402299E-1
3.244680000E0,1.608242512E0,1.200199723E-1,-3.415957838E-2
3.254721000E0,1.652637124E0,5.680118799E-1,9.633851051E-2
3.264763000E0,1.168549538E0,4.156467915E-1,1.147878394E-1
3.274804000E0,2.681662142E-1,-2.864697874E-1,5.423288047E-2
3.284846000E0,8.590946347E-2,-2.267371714E-1,-8.062917739E-3
3.294887000E0,-1.286779344E-1,-3.509672582E-1,1.438912749E-2
3.304929000E0,-3.670968711E-1,-5.646920204E-1,6.100766361E-2
3.314970000E0,-5.979825854E-1,-4.851958454E-1,1.302799433E-1
3.325012000E0,-8.491390347E-1,-2.594444156E-1,2.171546370E-1
