"Time (s)","Acceleration x (m/s^2)","Acceleration y (m/s^2)","Acceleration z (m/s^2)"
0.000000000E0,5.540086746E0,3.027851105E0,6.447987080E0
3.610184000E-3,5.446876049E0,2.973483562E0,6.594244480E0
5.610184000E-3,5.415033340E0,2.964069605E0,6.724029064E0
7.617996000E-3,5.401347637E0,2.977438688E0,6.857826710E0
1.161174600E-2,5.389510632E0,3.018226385E0,7.096911430E0
1.361174600E-2,5.389510632E0,3.018226385E0,7.096911430E0
1.561643400E-2,5.385555744E0,3.094515324E0,7.179636002E0
1.961018400E-2,5.487520218E0,3.179585934E0,7.459805489E0
2.161018400E-2,5.574390888E0,3.259073496E0,7.581211090E0
2.361487100E-2,5.676968098E0,3.338723898E0,7.722526550E0
2.761018400E-2,5.944429398E0,3.542527914E0,8.051020622E0
2.961018400E-2,6.102868080E0,3.662372112E0,8.249145508E0
3.161018400E-2,6.265233517E0,3.805267572E0,8.472534180E0
3.361018400E-2,6.416154385E0,3.946266890E0,8.700519562E0
3.561018400E-2,6.557661057E0,4.088626385E0,8.917875290E0
3.761018400E-2,6.664614677E0,4.215413570E0,9.133218765E0
3.961018400E-2,6.753334522E0,4.340687275E0,9.330692291E0
4.161018400E-2,6.812327862E0,4.429953098E0,9.528588295E0
4.361018400E-2,6.811896324E0,4.477952003E0,9.707568169E0
4.561018400E-2,6.760200500E0,4.490200520E0,9.859849930E0
4.761018400E-2,6.655632019E0,4.457581997E0,9.989346504E0
4.961018400E-2,6.517447948E0,4.383237362E0,1.007762623E1
5.161018400E-2,6.354958534E0,4.256814003E0,1.011849976E1
5.361018400E-2,6.162225246E0,4.102723122E0,1.013865948E1
5.561018400E-2,5.980141163E0,3.937733889E0,1.013417721E1
5.761643400E-2,5.838950157E0,3.754567862E0,1.004997730E1
6.161018400E-2,5.636247635E0,3.360099316E0,9.788425446E0
6.361018400E-2,5.588775158E0,3.163794041E0,9.619232178E0
6.561955900E-2,5.568070412E0,2.986010075E0,9.429468155E0
6.961018400E-2,5.593037128E0,2.668127298E0,9.001231194E0
7.161018400E-2,5.626785755E0,2.524120569E0,8.716053009E0
7.361018400E-2,5.641141415E0,2.382901192E0,8.373758316E0
7.561018400E-2,5.610141277E0,2.236691952E0,7.991347313E0
7.761018400E-2,5.601982117E0,2.104704380E0,7.593680382E0
7.961018400E-2,5.661750317E0,2.037609339E0,7.155627251E0
8.161018400E-2,5.781949043E0,2.022554636E0,6.506195545E0
8.361018400E-2,5.926740646E0,2.064807415E0,5.623845577E0
8.561018400E-2,6.093070984E0,2.063284636E0,4.908199787E0
8.761018400E-2,6.130708218E0,1.810935855E0,4.665590286E0
8.961018400E-2,6.406012058E0,1.746694565E0,4.576650620E0
9.161643400E-2,6.803804398E0,1.833584905E0,4.480240822E0
9.561018400E-2,7.547500610E0,2.086977720E0,4.831278801E0
9.761018400E-2,7.811398983E0,2.160786152E0,5.157799721E0
9.961487100E-2,7.956737041E0,2.174031019E0,5.480250835E0
1.036117460E-1,7.647079945E0,1.980138898E0,5.999160767E0
1.056117460E-1,7.496724129E0,1.893143177E0,6.105271816E0
1.096101840E-1,7.251031399E0,1.753542066E0,6.132508278E0
1.116101840E-1,7.159132481E0,1.694424391E0,6.120527744E0
1.136101840E-1,7.076484203E0,1.620376587E0,6.121791840E0
1.156148710E-1,7.006392002E0,1.549517870E0,6.144910336E0
1.196101840E-1,6.864616871E0,1.455693841E0,6.298196793E0
1.216101840E-1,6.801122665E0,1.410136938E0,6.383956909E0
1.236101840E-1,6.749752522E0,1.362549782E0,6.456664085E0
1.256117460E-1,6.673128605E0,1.339996338E0,6.507861614E0
1.276117460E-1,6.580846786E0,1.308345079E0,6.529916763E0
1.296117460E-1,6.448303223E0,1.264291763E0,6.546101570E0
1.336101840E-1,6.131608009E0,1.223034739E0,6.556291580E0
1.356101840E-1,5.959445953E0,1.196813583E0,6.547040462E0
1.376101840E-1,5.778683662E0,1.165478230E0,6.559193134E0
1.396101840E-1,5.594693661E0,1.143020630E0,6.595920563E0
1.416101840E-1,5.416862488E0,1.132888317E0,6.669604301E0
1.436101840E-1,5.222625256E0,1.111771464E0,6.784171581E0
1.456414340E-1,5.020487785E0,1.112164140E0,6.929164410E0
1.496101840E-1,4.642634869E0,1.125217319E0,7.233850479E0
1.516101840E-1,4.472110271E0,1.130992174E0,7.374983788E0
1.536101840E-1,4.304391384E0,1.118915796E0,7.497883320E0
1.556101840E-1,4.151344776E0,1.119155288E0,7.608878613E0
1.576101840E-1,4.006131649E0,1.132438183E0,7.714654446E0
1.596117460E-1,3.857202530E0,1.136699915E0,7.819519997E0
1.616117460E-1,3.726086378E0,1.144936085E0,7.927517891E0
1.636117460E-1,3.611519337E0,1.148460150E0,8.030890465E0
1.656133090E-1,3.514065742E0,1.151007652E0,8.138763428E0
1.696101840E-1,3.305932760E0,1.127841473E0,8.361212730E0
1.716101840E-1,3.222260237E0,1.106437206E0,8.467812538E0
1.736101840E-1,3.137562990E0,1.072286367E0,8.573924065E0
1.756117460E-1,3.067537308E0,1.034189820E0,8.682179451E0
1.776117460E-1,2.989007473E0,9.859801531E-1,8.801410675E0
1.796117460E-1,2.925637960E0,9.184827805E-1,8.953394890E0
1.816117460E-1,2.851264477E0,8.560228944E-1,9.129417419E0
1.836117460E-1,2.791667938E0,7.753574252E-1,9.316661835E0
1.856117460E-1,2.765187979E0,7.164601088E-1,9.497635841E0
1.876117460E-1,2.735863686E0,6.608571410E-1,9.665689468E0
1.896117460E-1,2.723270178E0,5.924021006E-1,9.805721283E0
1.916117460E-1,2.717859268E0,5.180573463E-1,9.915107727E0
1.936117460E-1,2.723251104E0,4.423718452E-1,9.989021301E0
1.956117460E-1,2.728384256E0,3.783988059E-1,1.003992176E1
1.976117460E-1,2.741753578E0,3.133435249E-1,1.005515957E1
1.996148710E-1,2.755860329E0,2.418909967E-1,1.004534245E1
2.036117460E-1,2.816165209E0,1.520222276E-1,1.001556873E1
2.056117460E-1,2.845460892E0,1.335677207E-1,1.010441208E1
2.076117460E-1,2.858207464E0,1.331176162E-1,1.023704147E1
2.096117460E-1,2.856818914E0,1.594825536E-1,1.042174911E1
2.116117460E-1,2.820398331E0,2.510080934E-1,1.092119884E1
2.136117460E-1,2.797270298E0,4.489415586E-1,1.171899509E1
2.156117460E-1,2.693160772E0,6.619489193E-1,1.234094143E1
2.176226840E-1,2.365998030E0,7.960625291E-1,1.259099197E1
2.216117460E-1,1.670693159E0,7.960529327E-1,1.239081764E1
2.236117460E-1,1.539031148E0,6.732782722E-1,1.232802200E1
2.256117460E-1,1.458423257E0,5.692262650E-1,1.243808842E1
2.276117460E-1,1.385505319E0,3.694827855E-1,1.240095901E1
2.296117460E-1,1.329595923E0,-2.736093663E-2,1.197644806E1
2.316508090E-1,1.265804768E0,-6.088359356E-1,1.125038242E1
2.356117460E-1,1.108476996E0,-2.229030609E0,9.325271606E0
2.376117460E-1,9.309996963E-1,-3.100577354E0,8.377972603E0
2.396117460E-1,7.829518318E-1,-3.889869213E0,7.645164967E0
2.416117460E-1,8.927307725E-1,-4.220948696E0,7.715678692E0
2.436117460E-1,1.355989575E0,-3.898928642E0,8.499061584E0
2.456117460E-1,1.677320242E0,-3.542422533E0,9.002188683E0
2.476117460E-1,2.382326365E0,-2.618423700E0,9.905540466E0
2.496117460E-1,3.032735348E0,-1.600428104E0,1.044360352E1
2.516539340E-1,3.609249592E0,-2.747298479E-1,1.053724480E1
2.556117460E-1,3.841506004E0,7.462535501E-1,9.977346420E0
2.576117460E-1,3.846102953E0,1.238865376E0,9.469316483E0
2.596117460E-1,3.758178473E0,1.564160585E0,8.923830986E0
2.616117460E-1,3.564995050E0,1.719822168E0,8.388574600E0
2.636117460E-1,3.451816320E0,1.733756304E0,8.320272446E0
2.656117460E-1,3.432365894E0,1.569810987E0,1.114201164E1
2.676117460E-1,3.388360262E0,1.562187910E0,1.416909695E1
2.696117460E-1,3.620167017E0,1.552314162E0,1.373270035E1
2.736117460E-1,4.333686829E0,1.608443856E0,1.169461250E1
2.756117460E-1,4.711587906E0,1.672972441E0,1.173357010E1
2.776117460E-1,4.827821732E0,1.762764573E0,1.201084805E1
2.796117460E-1,4.653925896E0,1.801483512E0,1.213586330E1
2.816117460E-1,4.345361233E0,1.768855333E0,1.194373322E1
2.836117460E-1,4.018667698E0,1.653320789E0,1.158754349E1
2.856117460E-1,3.705554008E0,1.460874915E0,1.115946960E1
2.876117460E-1,3.427788019E0,1.228943706E0,1.069005299E1
2.896117460E-1,3.166034937E0,9.682343006E-1,1.012226391E1
2.916164340E-1,2.921347380E0,7.119590044E-1,9.520916939E0
2.936195590E-1,2.652765751E0,5.019970536E-1,8.885705948E0
2.976117460E-1,2.054004908E0,2.141661346E-1,7.639217854E0
2.996117460E-1,1.727962375E0,1.733785123E-1,6.986529827E0
3.036117460E-1,1.088317871E0,2.782924175E-1,5.476161480E0
3.056117460E-1,7.598717809E-1,4.007702172E-1,4.748372555E0
3.096133090E-1,2.219137698E-1,7.658764124E-1,3.565895319E0
3.136117460E-1,-6.745903194E-2,1.154800057E0,2.651942492E0
3.156117460E-1,-8.756074309E-2,1.339057803E0,2.299017906E0
3.176117460E-1,-1.242111903E-2,1.513461113E0,2.152492762E0
3.196117460E-1,1.465251446E-1,1.674073696E0,2.211390018E0
3.216117460E-1,3.973129988E-1,1.833786130E0,2.483438492E0
3.236179960E-1,7.199556231E-1,1.978348017E0,2.855746269E0
3.276101840E-1,1.482336402E0,2.159435749E0,3.808724880E0
3.296101840E-1,1.841667891E0,2.180121899E0,4.377855301E0
3.316101840E-1,2.176999807E0,2.162509918E0,4.983769894E0
3.336101840E-1,2.479655504E0,2.142877340E0,5.586917400E0
3.356101840E-1,2.751914501E0,2.109665394E0,6.095340729E0
3.376101840E-1,2.926672220E0,2.063945532E0,6.515360355E0
3.396117460E-1,3.057175398E0,2.039026499E0,6.810229778E0
3.416164340E-1,3.218726635E0,2.123589754E0,7.009408474E0
3.456101840E-1,3.249104023E0,2.217030764E0,7.268212318E0
3.476101840E-1,3.177498341E0,2.205433369E0,7.335834026E0
3.496492460E-1,3.180649281E0,2.195981026E0,7.296923161E0
3.536258090E-1,3.067757607E0,2.090616941E0,7.224513054E0
3.576101840E-1,2.762794018E0,1.845680594E0,7.337653637E0
3.596492460E-1,2.568604946E0,1.696301460E0,7.422551632E0
3.636101840E-1,2.041918755E0,1.346997023E0,7.629755974E0
3.656101840E-1,1.574388623E0,1.176884174E0,7.898739815E0
3.676133090E-1,1.011550188E0,1.021222830E0,8.256136894E0
3.716101840E-1,2.635920346E-1,7.560409904E-1,8.631039619E0
3.736101840E-1,-1.975695230E-2,6.457161903E-1,8.658390999E0
3.756508090E-1,-2.748639286E-1,5.441350341E-1,8.626864433E0
3.796148710E-1,-6.767737865E-1,3.650870323E-1,8.579430580E0
3.836101840E-1,-7.464259267E-1,2.501366138E-1,8.701639175E0
3.856101840E-1,-6.336302757E-1,2.044839710E-1,8.780055046E0
3.876101840E-1,-4.635365903E-1,1.766058952E-1,8.850836754E0
3.896101840E-1,-2.315097302E-1,1.580843478E-1,8.892754555E0
3.916351840E-1,1.583046094E-2,1.458835006E-1,8.901077271E0
3.956101840E-1,4.405331016E-1,1.561881453E-1,8.854380608E0
3.976101840E-1,6.239576936E-1,1.830510795E-1,8.665430069E0
3.996117460E-1,7.623138428E-1,2.400809675E-1,8.290277481E0
4.016164340E-1,9.182242155E-1,3.656999469E-1,7.920641422E0
4.056101840E-1,1.515127420E0,5.471804142E-1,8.730169296E0
4.076101840E-1,1.777627707E0,6.395487189E-1,9.586661339E0
4.096117460E-1,1.871988058E0,7.676864266E-1,1.019454861E1
4.136101840E-1,1.716585159E0,9.529018402E-1,1.031090736E1
4.156101840E-1,1.614266634E0,9.630819559E-1,9.976897240E0
4.176164340E-1,1.512704492E0,9.568378925E-1,9.524287224E0
4.216101840E-1,1.454017878E0,9.316987991E-1,8.672478676E0
4.236101840E-1,1.490208626E0,8.978160620E-1,8.386582375E0
4.256101840E-1,1.564716220E0,8.337568045E-1,8.189931870E0
4.276101840E-1,1.680279493E0,7.561751008E-1,8.051403046E0
4.296101840E-1,1.806683660E0,6.806523800E-1,7.972126484E0
4.316101840E-1,1.900440693E0,6.025247574E-1,7.921015263E0
4.336101840E-1,1.967937946E0,5.103192925E-1,7.874472141E0
4.356101840E-1,1.996409893E0,4.228064716E-1,7.830638885E0
4.376101840E-1,1.975072742E0,3.443053663E-1,7.776558399E0
4.396101840E-1,1.907307267E0,2.829946280E-1,7.718982697E0
4.416148710E-1,1.820215821E0,2.336836755E-1,7.648363113E0
4.436148710E-1,1.733670115E0,1.909040660E-1,7.565122128E0
4.476195590E-1,1.541664839E0,1.244314462E-1,7.393323898E0
4.516211210E-1,1.370431542E0,5.909847468E-2,7.235967159E0
4.556117460E-1,1.292878509E0,-2.613510564E-2,7.107973099E0
4.576289340E-1,1.265105724E0,-1.003745124E-1,7.061678886E0
4.616320590E-1,1.225888729E0,-2.181788236E-1,6.954284668E0
4.656164340E-1,1.254264712E0,-3.468815386E-1,6.852827549E0
4.696101840E-1,1.360078931E0,-4.396137297E-1,6.784899235E0
4.716101840E-1,1.428677559E0,-4.840788543E-1,6.779450417E0
4.736101840E-1,1.499450207E0,-5.117175579E-1,6.808257103E0
4.756148710E-1,1.564687371E0,-5.262455344E-1,6.873293400E0
4.796101840E-1,1.679906011E0,-5.377568603E-1,7.000291348E0
4.816117460E-1,1.945652843E0,-5.838692188E-1,6.798239708E0
4.836148710E-1,2.294554949E0,-6.648027897E-1,6.478987217E0
4.876101840E-1,2.912833691E0,-9.317467213E-1,6.033732891E0
4.896117460E-1,3.011302471E0,-1.112192869E0,6.093836784E0
4.916117460E-1,2.919288397E0,-1.345828652E0,6.351031780E0
4.936179960E-1,2.631026506E0,-1.627434731E0,6.742148399E0
4.956179960E-1,2.160824537E0,-1.914920807E0,7.233869553E0
4.996461210E-1,9.500479698E-1,-2.345829248E0,8.376717567E0
5.036101840E-1,4.916732758E-2,-2.611490011E0,9.140142441E0
5.056117460E-1,-1.579789966E-1,-2.707985878E0,9.238228798E0
5.076117460E-1,-1.944091767E-1,-2.787042141E0,9.200945854E0
5.116101840E-1,1.052299514E-1,-2.941870689E0,8.967175484E0
5.136586210E-1,3.362416923E-1,-2.999781609E0,8.880764961E0
5.176164340E-1,7.597184777E-1,-3.131491184E0,8.796766281E0
5.216117460E-1,1.083443403E0,-3.275440454E0,8.693634033E0
5.236117460E-1,1.203153491E0,-3.351614237E0,8.575579643E0
5.256117460E-1,1.313133478E0,-3.408874035E0,8.420800209E0
5.296117460E-1,1.476810694E0,-3.544510365E0,7.986176014E0
5.316117460E-1,1.568949103E0,-3.618127108E0,7.738749504E0
5.336148710E-1,1.633506298E0,-3.652622700E0,7.630196095E0
5.376117460E-1,1.976423144E0,-3.723960400E0,7.233180046E0
5.396117460E-1,2.178397894E0,-3.736783981E0,6.997571945E0
5.416211210E-1,2.487958670E0,-3.693419933E0,6.726270199E0
5.456101840E-1,3.447286606E0,-3.540018797E0,5.810430527E0
5.476101840E-1,3.948976994E0,-3.498024464E0,5.379780769E0
5.496117460E-1,4.137238026E0,-3.498637438E0,5.190293789E0
5.516117460E-1,4.304602146E0,-3.550993681E0,4.848756313E0
5.536117460E-1,4.263000488E0,-3.656472683E0,4.522464752E0
5.556117460E-1,4.100309849E0,-3.811482906E0,4.186922550E0
5.576195590E-1,3.878903627E0,-3.990569115E0,3.861406803E0
5.616101840E-1,3.239699602E0,-4.350244999E0,3.321725130E0
5.636117460E-1,2.874219894E0,-4.521842957E0,3.132171392E0
5.656117460E-1,2.543255091E0,-4.653647900E0,2.989007473E0
5.676117460E-1,2.224174976E0,-4.773329735E0,2.906589508E0
5.696117460E-1,2.012154102E0,-4.784352303E0,2.897750139E0
5.716117460E-1,2.316658258E0,-4.430930138E0,3.001524448E0
5.736117460E-1,2.435372353E0,-4.237153053E0,3.127133846E0
5.756117460E-1,2.024872303E0,-4.256038189E0,3.273927212E0
5.776117460E-1,1.469283342E0,-4.432126999E0,3.354171038E0
5.816117460E-1,2.289527059E-1,-5.053910732E0,3.319062710E0
5.836117460E-1,-3.555293977E-1,-5.401060581E0,3.227881908E0
5.856117460E-1,-8.749274611E-1,-5.758409500E0,3.135628462E0
5.876117460E-1,-1.325947285E0,-6.112665176E0,3.080533266E0
5.896117460E-1,-1.777139306E0,-6.480194569E0,3.058822393E0
5.916117460E-1,-2.228235483E0,-6.796975613E0,3.092628717E0
5.936117460E-1,-2.526677847E0,-6.973198891E0,3.195828438E0
5.956117460E-1,-2.659239769E0,-7.010586262E0,3.336884975E0
5.996117460E-1,-2.764738083E0,-6.808056355E0,3.645995617E0
6.016117460E-1,-2.801378965E0,-6.643249035E0,3.780904055E0
6.036117460E-1,-2.827897072E0,-6.497700691E0,3.885128736E0
6.056117460E-1,-2.857680798E0,-6.375567436E0,3.966943026E0
6.076117460E-1,-2.883155107E0,-6.304296970E0,4.033808708E0
6.096117460E-1,-2.888642550E0,-6.278774738E0,4.089220047E0
6.136117460E-1,-2.840710640E0,-6.342652321E0,4.096153259E0
6.176117460E-1,-2.630585909E0,-6.442490101E0,4.099026203E0
6.196117460E-1,-2.585757017E0,-6.579237461E0,4.022258759E0
6.216117460E-1,-2.592920303E0,-6.704397202E0,3.916435003E0
6.236117460E-1,-2.611125946E0,-6.735607624E0,3.881652117E0
6.256117460E-1,-2.707918644E0,-6.868274689E0,3.855478764E0
6.276117460E-1,-2.920485497E0,-7.161986351E0,3.791601658E0
6.296117460E-1,-3.215096951E0,-7.508274078E0,3.718712330E0
6.336117460E-1,-3.980695486E0,-8.238486290E0,3.657554865E0
6.356117460E-1,-4.433314323E0,-8.585501671E0,3.662621021E0
6.396101840E-1,-5.373278141E0,-9.211097717E0,3.710888147E0
6.416101840E-1,-5.867699623E0,-9.570179939E0,3.708876848E0
6.436101840E-1,-6.276294231E0,-9.849544525E0,3.747423649E0
6.456414340E-1,-6.596514225E0,-1.000726509E1,3.810084820E0
6.496101840E-1,-7.034681797E0,-9.992842674E0,3.993432522E0
6.516601840E-1,-7.270127296E0,-9.923630714E0,4.103230953E0
6.556101840E-1,-7.892782688E0,-9.724940300E0,4.357035160E0
6.576101840E-1,-8.298877716E0,-9.654809952E0,4.454948902E0
6.596226840E-1,-8.729595184E0,-9.617488861E0,4.517916203E0
6.636508090E-1,-9.672622681E0,-9.642896652E0,4.546062469E0
6.676101840E-1,-1.058996582E1,-9.673149109E0,4.493974209E0
6.696101840E-1,-1.099788094E1,-9.645711899E0,4.476879597E0
6.716101840E-1,-1.138967705E1,-9.601180077E0,4.432874203E0
6.736398710E-1,-1.172604275E1,-9.532120705E0,4.423364162E0
6.776101840E-1,-1.219729900E1,-9.275999069E0,4.421813011E0
6.796101840E-1,-1.238617325E1,-9.137480736E0,4.393762112E0
6.816117460E-1,-1.253426838E1,-9.031187057E0,4.354631424E0
6.856101840E-1,-1.278884888E1,-8.882009506E0,4.256421566E0
6.876101840E-1,-1.285132790E1,-8.834431648E0,4.245714188E0
6.896101840E-1,-1.286851883E1,-8.836826324E0,4.169349194E0
6.916101840E-1,-1.286154556E1,-8.851488113E0,4.076645374E0
6.936117460E-1,-1.283885860E1,-8.850223541E0,3.966732502E0
6.956117460E-1,-1.270135403E1,-8.693901062E0,3.923531532E0
6.976117460E-1,-1.250242615E1,-8.486094475E0,3.969270229E0
6.996523710E-1,-1.232711220E1,-8.378594398E0,3.939448357E0
7.036117460E-1,-1.225559235E1,-8.448841095E0,3.611021280E0
7.056179960E-1,-1.236052608E1,-8.616109848E0,3.389260769E0
7.096117460E-1,-1.261056614E1,-8.998310089E0,2.985014200E0
7.116117460E-1,-1.274853039E1,-9.214918137E0,2.793640614E0
7.136117460E-1,-1.289517021E1,-9.428491592E0,2.602650404E0
7.176117460E-1,-1.332723713E1,-9.844851494E0,2.187141657E0
7.196117460E-1,-1.355137348E1,-1.001727200E1,1.989342213E0
7.216117460E-1,-1.379962349E1,-1.017816353E1,1.827580333E0
7.236211210E-1,-1.412256241E1,-1.039860249E1,1.670022726E0
7.276117460E-1,-1.433216000E1,-1.072432804E1,1.605992198E0
7.296117460E-1,-1.432565784E1,-1.063498592E1,1.716910720E0
7.316117460E-1,-1.428394127E1,-1.041786098E1,1.898793459E0
7.356117460E-1,-1.430819893E1,-9.862224579E0,2.108812809E0
7.396117460E-1,-1.466239738E1,-9.448869705E0,2.042426348E0
7.416148710E-1,-1.488008785E1,-9.303542137E0,2.012546778E0
7.436570590E-1,-1.500833130E1,-9.188219070E0,2.036890984E0
7.476101840E-1,-1.523356819E1,-9.027174950E0,2.188367367E0
7.496101840E-1,-1.530897522E1,-9.024770737E0,2.270766258E0
7.516101840E-1,-1.527601242E1,-9.034079552E0,2.337890148E0
7.536101840E-1,-1.521771908E1,-9.054238319E0,2.332325935E0
7.556101840E-1,-1.520658016E1,-9.069839478E0,2.322643757E0
7.576117460E-1,-1.522659588E1,-9.095582008E0,2.293013096E0
7.596211210E-1,-1.524471569E1,-9.127654076E0,2.203728437E0
7.616570590E-1,-1.522045708E1,-9.115109444E0,2.110057831E0
7.656117460E-1,-1.501824284E1,-8.940361023E0,1.968148708E0
7.676117460E-1,-1.485610771E1,-8.856449127E0,1.884380341E0
7.716117460E-1,-1.426248932E1,-8.591746330E0,1.805256844E0
7.736117460E-1,-1.390960312E1,-8.502959251E0,1.765608907E0
7.756117460E-1,-1.358750725E1,-8.529630661E0,1.707812786E0
7.776117460E-1,-1.330287361E1,-8.583997726E0,1.580517888E0
7.796164340E-1,-1.303211880E1,-8.594179153E0,1.319578648E0
7.816211210E-1,-1.275904560E1,-8.585377693E0,1.032781959E0
7.856179960E-1,-1.229458046E1,-8.627926826E0,3.407523632E-1
7.896117460E-1,-1.178441429E1,-8.557317734E0,-3.147608936E-1
7.916117460E-1,-1.152080250E1,-8.536574364E0,-6.919530034E-1
7.936117460E-1,-1.127453518E1,-8.516644478E0,-1.065802813E0
7.956117460E-1,-1.109125423E1,-8.494397163E0,-1.459955454E0
7.976117460E-1,-1.093471146E1,-8.458398819E0,-1.872122049E0
7.996117460E-1,-1.077036381E1,-8.408828735E0,-2.259714603E0
8.016117460E-1,-1.057376194E1,-8.298810959E0,-2.549144745E0
8.036117460E-1,-1.032087708E1,-8.111612320E0,-2.700716972E0
8.056117460E-1,-1.003724957E1,-7.882650375E0,-2.738104820E0
8.076117460E-1,-9.740934372E0,-7.672113895E0,-2.788564920E0
8.096117460E-1,-9.452605247E0,-7.510313988E0,-2.894704819E0
8.116117460E-1,-9.264372826E0,-7.456338882E0,-3.044782877E0
8.136117460E-1,-9.208635330E0,-7.536707401E0,-3.188770294E0
8.156117460E-1,-9.159257889E0,-7.690731525E0,-3.203001261E0
8.176117460E-1,-9.105656624E0,-7.756619453E0,-3.132908583E0
8.196117460E-1,-8.926205635E0,-7.839037418E0,-2.864087582E0
8.216117460E-1,-8.658563614E0,-7.846478939E0,-2.510138512E0
8.236117460E-1,-8.304853439E0,-7.801104069E0,-2.158277035E0
8.256117460E-1,-7.593019009E0,-7.714883804E0,-1.694941521E0
8.276117460E-1,-7.382109165E0,-7.706983566E0,-1.556164026E0
8.296711210E-1,-7.076743126E0,-7.701428890E0,-1.256888747E0
