"Time (s)","X (rad/s)","Y (rad/s)","Z (rad/s)"
8.592458325E-3,7.396081090E-1,-1.593249559E0,2.884661853E-1
1.861845833E-2,2.192211449E-1,-1.190841675E0,1.058074236E-1
2.864545831E-2,-3.072053790E-1,-7.623575330E-1,-6.326249242E-2
3.867245832E-2,-7.684156299E-1,-3.894854188E-1,-1.361564100E-1
4.869945833E-2,-1.115759850E0,-2.444972694E-1,-1.004332900E-1
5.872545831E-2,-1.307684779E0,-3.594883084E-1,1.435348019E-2
6.875070833E-2,-1.353437781E0,-6.037407517E-1,1.590626538E-1
7.877770832E-2,-1.325241923E0,-8.572670221E-1,3.210664392E-1
8.880470833E-2,-1.314896584E0,-1.012519598E0,4.166100323E-1
9.883070833E-2,-1.380409241E0,-9.683263302E-1,4.215187430E-1
1.088577083E-1,-1.530896306E0,-9.932700992E-1,3.689969778E-1
1.188847083E-1,-1.698155642E0,-9.761979580E-1,2.925597429E-1
1.289107083E-1,-1.776289582E0,-9.639432430E-1,1.650861651E-1
1.389377083E-1,-1.670416117E0,-9.369614124E-1,-1.305560023E-2
1.489647083E-1,-1.356138229E0,-7.543876767E-1,-2.423511147E-1
1.589917083E-1,-9.184698462E-1,-5.017551780E-1,-4.376321733E-1
1.690177083E-1,-4.930632710E-1,-2.325179577E-1,-5.667712688E-1
1.790447083E-1,-2.140420377E-1,2.865582108E-1,-5.750270486E-1
1.890717083E-1,-1.378156990E-1,3.595657647E-1,-4.979533255E-1
1.990987083E-1,-2.285549194E-1,-2.470387518E-2,-3.888084590E-1
2.091247083E-1,-3.746413887E-1,-5.358727574E-1,-2.939756513E-1
2.191517083E-1,-4.972181618E-1,-7.499725223E-1,-1.744833440E-1
2.291787083E-1,-6.054086089E-1,-8.753334880E-1,-3.344132006E-2
2.392057083E-1,-6.960647702E-1,-1.095179796E0,4.207846895E-2
2.492317083E-1,-7.434523106E-1,-1.108354092E0,1.874025352E-2
2.592587083E-1,-7.418469787E-1,-8.952357173E-1,-6.675121188E-2
2.692857083E-1,-7.017225027E-1,-4.080103040E-1,-1.628081053E-1
2.793117083E-1,-6.919886470E-1,2.861708216E-2,-1.684121937E-1
2.893387083E-1,-7.522618175E-1,-9.308905900E-2,-1.637931317E-1
2.993657083E-1,-7.768217921E-1,-1.176580563E-1,-1.984600276E-1
3.093927083E-1,-7.471318245E-1,1.327941865E-1,-2.892709970E-1
3.194187083E-1,-7.683886290E-1,8.907307684E-2,-4.162851274E-1
3.294457083E-1,-8.021773100E-1,6.715774536E-2,-5.759247541E-1
3.394727083E-1,-8.334262967E-1,2.762406468E-1,-7.442919016E-1
3.494997083E-1,-9.065855742E-1,4.285689592E-1,-8.772867918E-1
3.595257083E-1,-1.053796053E0,3.525285125E-1,-9.726154208E-1
3.695527083E-1,-1.229354620E0,4.437723160E-1,-1.006504059E0
3.795797083E-1,-1.466648698E0,4.797817171E-1,-1.003040433E0
3.896057083E-1,-1.789228678E0,4.055272639E-1,-1.005370617E0
3.996327083E-1,-2.145092964E0,4.526740015E-1,-1.012342215E0
4.096597083E-1,-2.445457935E0,5.751276612E-1,-9.762852788E-1
4.196867083E-1,-2.651020288E0,4.004141092E-1,-9.428607225E-1
4.297127083E-1,-2.634155035E0,-1.376999617E-1,-9.245900512E-1
4.397397083E-1,-2.291358948E0,-6.083772182E-1,-8.930459619E-1
4.497667083E-1,-1.796263456E0,-9.546215534E-1,-8.462548256E-1
4.597937083E-1,-1.299797773E0,-9.484382272E-1,-6.356970668E-1
4.698197083E-1,-8.965972066E-1,-6.719624996E-1,-3.790301681E-1
4.798467083E-1,-6.409488916E-1,-3.315186203E-1,-1.787660569E-1
4.898737083E-1,-5.678379536E-1,-6.318742037E-2,-7.338487357E-2
4.998997083E-1,-6.588948965E-1,1.159615591E-1,-6.968414038E-2
5.099267083E-1,-8.464429379E-1,2.938017249E-1,-1.454722732E-1
5.199537083E-1,-1.044551015E0,4.944368303E-1,-2.725394070E-1
5.299807083E-1,-1.175523281E0,7.118369341E-1,-3.905963898E-1
5.400067083E-1,-1.203247786E0,7.969697118E-1,-4.420867562E-1
5.500337083E-1,-1.118627191E0,6.178089976E-1,-4.131648242E-1
5.600607083E-1,-9.553161263E-1,1.970425993E-1,-3.141745925E-1
5.700877083E-1,-7.466605306E-1,-1.956448555E-1,-1.575988531E-1
5.801137083E-1,-5.583058000E-1,-3.511385620E-1,6.781572010E-3
5.901407083E-1,-4.390695691E-1,-3.267006278E-1,1.120841950E-1
6.001677083E-1,-4.042138457E-1,-2.192005515E-1,1.484581828E-1
6.101937083E-1,-4.456341863E-1,-1.072140783E-1,1.453008652E-1
6.202207083E-1,-5.521276593E-1,4.224385321E-2,9.689337760E-2
6.302477083E-1,-6.865488887E-1,3.080198169E-1,3.833191097E-2
6.402747083E-1,-7.922870517E-1,5.805341601E-1,-8.180729114E-3
6.503007083E-1,-8.328084350E-1,7.455905676E-1,-3.662715480E-2
6.603277083E-1,-8.115971684E-1,7.624641061E-1,-3.546122089E-2
6.703547083E-1,-7.238100767E-1,6.115833521E-1,-7.942263037E-3
6.803817083E-1,-5.708021522E-1,3.532335460E-1,4.951916635E-2
6.904077083E-1,-3.567847610E-1,9.902819246E-2,1.355060786E-1
7.004347083E-1,-1.369762272E-1,-8.492992818E-2,2.075794786E-1
7.104617083E-1,3.078929707E-2,-2.298551500E-1,2.241122127E-1
7.204877083E-1,9.015515447E-2,-3.131037354E-1,1.733552814E-1
7.305147083E-1,4.797972366E-2,-2.864879966E-1,9.089581668E-2
7.405417083E-1,-5.441375822E-2,-1.336472929E-1,1.053413283E-2
7.505687083E-1,-1.763305068E-1,1.016799062E-1,-5.811094120E-2
7.605947083E-1,-2.899590731E-1,3.150526285E-1,-1.054395735E-1
7.706217083E-1,-3.742842972E-1,4.695146978E-1,-1.012274846E-1
7.806487083E-1,-4.330922067E-1,5.845283866E-1,-4.289014265E-2
7.906757083E-1,-4.644095898E-1,6.115513444E-1,7.165823132E-2
8.007017083E-1,-4.671649039E-1,5.145187974E-1,1.717680544E-1
8.107287083E-1,-4.492446184E-1,3.344668746E-1,2.226045132E-1
8.207557083E-1,-4.233131409E-1,1.515761465E-1,2.332403809E-1
8.307817083E-1,-4.000584781E-1,6.470905244E-2,1.939746439E-1
8.408087083E-1,-3.638834059E-1,6.172284856E-2,1.211707368E-1
8.508357083E-1,-2.883077562E-1,1.065880954E-1,4.831858724E-2
8.608627083E-1,-1.710791439E-1,1.687899679E-1,-7.828835398E-3
8.708887083E-1,-6.268698722E-2,1.827291846E-1,-5.399844050E-2
8.809157083E-1,-4.827681929E-3,1.829203963E-1,-8.543066680E-2
8.909427083E-1,-3.977822512E-2,1.892660260E-1,-8.812552691E-2
9.009697083E-1,-1.626546085E-1,1.475909948E-1,-6.898272783E-2
9.109957083E-1,-3.252760470E-1,8.519947529E-2,-5.103838444E-2
9.210227083E-1,-4.640328586E-1,1.088769175E-2,-2.888328023E-2
9.310497083E-1,-5.426666141E-1,-9.614680707E-2,-2.204838954E-2
9.410757083E-1,-5.344121456E-1,-1.996729225E-1,-5.207206681E-2
9.511027083E-1,-1.123624891E-1,3.405011892E-1,-5.104321614E-2
9.611297083E-1,4.886391759E-1,7.795249224E-1,-1.189080179E-1
9.711567083E-1,5.785030127E-1,3.869695961E-1,-1.961025894E-1
9.811827083E-1,4.724950492E-1,2.916723490E-1,-1.074390337E-1
9.912097083E-1,2.869328260E-1,4.889254868E-1,-2.623913577E-3
1.001236708E0,3.737411648E-2,6.047181487E-1,3.724174201E-2
1.011263708E0,-1.895704269E-1,6.376513839E-1,9.042991698E-2
1.021289708E0,-3.496029675E-1,5.740873218E-1,1.655283868E-1
1.031316708E0,-4.291241765E-1,4.123001397E-1,2.365949005E-1
1.041343708E0,-3.884571791E-1,1.955651790E-1,2.573952675E-1
1.051369708E0,-2.917208672E-1,1.995008998E-2,1.904852539E-1
1.061396708E0,-1.541720629E-1,2.837020718E-2,6.767702848E-2
1.071424333E0,4.406920075E-2,1.955575645E-1,-5.389259756E-2
1.081451333E0,2.111726999E-1,3.869110048E-1,-1.497384310E-1
1.091477333E0,3.617395163E-1,3.622202873E-1,-6.386332959E-2
1.101504333E0,6.897128820E-1,2.740558088E-1,1.281926632E-1
1.111531333E0,8.345203400E-1,2.735342979E-1,2.119961530E-1
1.121557333E0,7.642307281E-1,2.692855000E-1,2.702599764E-1
1.131584333E0,6.092346311E-1,2.947269976E-1,3.784207702E-1
1.141611333E0,4.879899621E-1,2.416970581E-1,4.756381214E-1
1.151638333E0,3.827579618E-1,7.197099924E-2,5.734174848E-1
1.161664333E0,3.119376302E-1,-3.118621707E-1,6.968520880E-1
1.171691333E0,2.683070004E-1,-3.849127591E-1,7.807594538E-1
1.181718333E0,2.372313738E-1,-2.272656262E-1,7.403758168E-1
1.191745333E0,1.945583224E-1,-1.005655453E-1,6.634580493E-1
1.201771333E0,8.275268972E-2,-1.840196550E-2,6.747589111E-1
1.211798333E0,-6.397723407E-2,-5.589562654E-2,7.496853471E-1
1.221825333E0,-1.709580123E-1,-1.500530243E-1,8.756667376E-1
1.231851333E0,-2.222419083E-1,-2.078354061E-1,9.390033484E-1
1.241878333E0,-1.619926840E-1,-2.624126375E-1,8.894320726E-1
1.251905333E0,1.832220145E-2,-2.741583586E-1,8.617385626E-1
1.261932333E0,2.045495957E-1,-2.650396824E-1,9.158781767E-1
1.271958333E0,2.958126366E-1,-2.564719319E-1,1.013317108E0
1.281985333E0,2.605734468E-1,-1.798775494E-1,1.114390492E0
1.292012333E0,1.753468215E-1,-1.331454366E-1,1.191997647E0
1.302039333E0,1.262312084E-1,-1.674165875E-1,1.258410215E0
1.312065333E0,1.535793841E-1,-2.469492406E-1,1.335713625E0
1.322092333E0,2.667208612E-1,-3.337925375E-1,1.460113525E0
1.332119333E0,5.843119621E-1,-8.223897815E-1,1.494278431E0
1.342145333E0,1.210678935E0,1.575165987E-1,1.240675688E0
1.352172333E0,1.452616096E0,5.114337802E-1,1.086684585E0
1.362199333E0,1.074136615E0,3.223783672E-1,1.313752413E0
1.372226333E0,5.839982629E-1,-2.671882510E-1,1.514417529E0
1.382252333E0,3.185239732E-1,-9.302461147E-1,1.686133146E0
1.392279333E0,3.982138038E-1,-1.271270394E0,1.978903413E0
1.402306333E0,6.521097422E-1,-1.548709989E0,2.288137197E0
1.412332333E0,9.416726232E-1,-1.752474666E0,2.588346004E0
1.422359333E0,1.174563169E0,-1.725455761E0,2.751965046E0
1.432386333E0,1.279888272E0,-1.554125190E0,2.651067734E0
1.442413333E0,1.215300560E0,-1.330572486E0,2.477164984E0
1.452439333E0,1.104405284E0,-1.034372091E0,2.355343103E0
1.462466333E0,9.325333834E-1,-7.848423719E-1,2.125514984E0
1.472493333E0,6.883816719E-1,-5.927118063E-1,1.944110990E0
1.482520333E0,4.782113731E-1,-5.694163442E-1,1.956952214E0
1.492546333E0,3.989437222E-1,-6.702646017E-1,2.055826664E0
1.502573333E0,4.725284576E-1,-7.479252815E-1,2.208148718E0
1.512600333E0,6.404486299E-1,-8.690975904E-1,2.306948185E0
1.522626333E0,7.970504761E-1,-1.057974815E0,2.429579020E0
1.532653333E0,8.960911036E-1,-1.245859981E0,2.504364967E0
1.542680333E0,9.626865983E-1,-1.213503361E0,2.471987963E0
1.552707333E0,9.789457917E-1,-8.927244544E-1,2.325317144E0
1.562733333E0,8.705378175E-1,-4.294250011E-1,2.086272955E0
1.572760333E0,6.607069373E-1,4.460167512E-2,2.019097805E0
1.582787333E0,4.398520291E-1,3.006576896E-1,2.086350203E0
1.592814333E0,3.678952157E-1,2.846916616E-1,2.191789865E0
1.602840333E0,3.621150851E-1,2.459271997E-1,2.377047777E0
1.612867333E0,5.310891271E-1,1.341643929E-1,2.970933676E0
1.622894333E0,8.033102155E-1,-1.401334852E-1,3.687957287E0
1.632920333E0,1.155088186E0,-8.058627248E-1,4.174524784E0
1.642947333E0,1.513565421E0,-1.278916836E0,4.412948608E0
1.652974333E0,1.830471635E0,-1.211626172E0,4.035557270E0
1.663001333E0,1.902395844E0,-5.749375820E-1,3.277214527E0
1.673027333E0,1.735304952E0,2.828843892E-1,2.504600286E0
1.683054333E0,1.475864053E0,1.043959141E0,1.776963115E0
1.693081333E0,1.086648703E0,1.426625967E0,1.327315092E0
1.703108333E0,6.709619164E-1,1.122912169E0,1.465747595E0
1.713134333E0,3.747981787E-1,5.995348692E-1,1.894917727E0
1.723161333E0,4.459381402E-1,2.810748518E-1,2.105752230E0
1.733188333E0,8.417500257E-1,3.067473769E-1,2.074069977E0
1.743214333E0,1.179414034E0,5.284483433E-1,2.094112396E0
1.753241333E0,1.191138744E0,5.790310502E-1,2.104776621E0
1.763268333E0,9.719822407E-1,3.133985698E-1,2.203256130E0
1.773295333E0,7.169810534E-1,2.060935795E-1,2.572339296E0
1.783321333E0,6.084431410E-1,-1.143731251E-1,3.043423176E0
1.793348333E0,6.939091682E-1,-4.740815759E-1,3.488496542E0
1.803375333E0,8.929618001E-1,-6.210507751E-1,3.861214876E0
1.813401333E0,1.033062220E0,-4.900568426E-1,3.995471478E0
1.823428333E0,1.115055919E0,-3.841037750E-1,3.890176058E0
1.833455333E0,1.097404003E0,-4.254514873E-1,3.908997536E0
1.843482333E0,1.039366007E0,-7.065803409E-1,3.998874903E0
1.853508333E0,9.873078465E-1,-9.038948417E-1,4.143458843E0
1.863535333E0,9.788781404E-1,-8.962129354E-1,4.338408947E0
1.873562333E0,9.035206437E-1,-9.407962561E-1,4.561880112E0
1.883589333E0,7.269440293E-1,-1.162861824E0,4.706116199E0
1.893615333E0,5.901171565E-1,-1.451759815E0,4.687501907E0
1.903642333E0,6.351096630E-1,-1.510281205E0,4.534044743E0
1.913669333E0,8.058410883E-1,-1.131659627E0,4.284775257E0
1.923695333E0,9.416545630E-1,-8.498772383E-1,4.107873440E0
1.933722333E0,9.388128519E-1,-6.668142080E-1,4.045883656E0
1.943749333E0,8.287473321E-1,-5.755543709E-1,4.010533333E0
1.953776333E0,5.855993629E-1,-4.045786560E-1,3.882188320E0
1.963802333E0,2.844248116E-1,-2.871151567E-1,3.615159273E0
1.973829333E0,1.533269696E-2,-3.710047603E-1,3.364313841E0
1.983856333E0,-3.100683726E-2,-5.175742507E-1,3.248254061E0
1.993883333E0,1.726525724E-1,-6.042160988E-1,3.243438482E0
2.003909333E0,4.912409484E-1,-4.683826268E-1,3.226080179E0
2.013936333E0,7.657041550E-1,-2.412973195E-1,3.044232845E0
2.023963333E0,9.131183624E-1,-6.570819020E-2,2.852854490E0
2.033989333E0,9.078765512E-1,5.041487515E-2,2.698370695E0
2.044016333E0,8.438658714E-1,1.149235591E-1,2.559933186E0
2.054043333E0,7.498546839E-1,1.987426281E-1,2.378824472E0
2.064074208E0,6.958870292E-1,3.383455276E-1,2.177771330E0
2.074100208E0,7.485998869E-1,2.827088535E-1,2.164647579E0
2.084127208E0,9.153457284E-1,1.444119662E-1,2.339992762E0
2.094154208E0,1.104925156E0,2.912339382E-2,2.479703665E0
2.104180208E0,1.299571514E0,3.836695850E-2,2.521532536E0
2.114207208E0,1.441855788E0,1.289896965E-1,2.500542164E0
2.124234208E0,1.538787603E0,3.059655428E-1,2.376317024E0
2.134261208E0,1.665570378E0,3.541167974E-1,2.352126598E0
2.144287208E0,1.858905435E0,4.043011367E-1,2.548356295E0
2.154314208E0,2.117490292E0,4.979073703E-1,2.780171394E0
2.164341208E0,2.353627205E0,7.306127548E-1,2.908507347E0
2.174368208E0,2.552265644E0,1.559739828E0,2.971314192E0
2.184394208E0,2.823256969E0,2.915244341E0,3.173074007E0
2.194421208E0,2.980815887E0,3.337271214E0,3.031811714E0
2.204448208E0,3.024420261E0,3.252636671E0,2.875039816E0
2.214474208E0,3.085958481E0,3.229983091E0,2.724377394E0
2.224501208E0,3.132828951E0,3.249354124E0,2.748340130E0
2.234528208E0,3.069377661E0,3.348140478E0,2.996251822E0
2.244555208E0,2.871639729E0,3.475512505E0,3.392642498E0
2.254581208E0,2.561262369E0,3.580236197E0,3.915352821E0
2.264608208E0,2.128865957E0,3.822339535E0,4.539437294E0
2.274635208E0,1.694807410E0,4.126848221E0,4.854934216E0
2.284662208E0,1.387856245E0,4.205532551E0,4.716595173E0
2.294688208E0,1.159213185E0,4.359966755E0,4.283736706E0
2.304715208E0,1.008758426E0,4.635945797E0,3.739902496E0
2.314742208E0,9.172239304E-1,4.836469173E0,3.280004501E0
2.324768208E0,9.428678155E-1,5.157731056E0,3.007881165E0
2.334795208E0,1.109819293E0,5.650510788E0,2.905243874E0
2.344822208E0,1.585608125E0,3.387060642E0,2.711682081E0
2.354849208E0,1.369160414E0,-1.811646938E0,2.071404219E0
2.364875208E0,1.073828816E0,-6.524006128E-1,6.778317690E-1
2.374902208E0,5.487787127E-1,-1.844878048E-1,-1.954171956E-1
2.384929208E0,8.909744024E-2,-4.007098675E-1,-3.777979314E-1
2.394956208E0,-2.463242859E-1,-3.266307712E-1,5.887314081E-1
2.404982208E0,-2.976694517E-2,-3.018223643E-1,1.388316870E0
2.415009208E0,4.565505683E-1,-3.006916046E-1,2.102784634E0
2.425036208E0,6.826137900E-1,-1.036232948E0,2.526264191E0
2.435062208E0,7.365161180E-1,-1.713249207E0,2.526764631E0
2.445089208E0,4.731478691E-1,-2.094296455E0,2.207504988E0
2.455116208E0,5.461541936E-2,-2.305144072E0,1.806037188E0
2.465143208E0,-2.282322645E-1,-2.478338242E0,1.476736307E0
2.475169208E0,-1.343758106E-1,-2.575113297E0,1.332165241E0
2.485196208E0,4.562722743E-1,-2.655644417E0,1.472425103E0
2.495223208E0,1.080886960E0,-3.042116165E0,1.525072217E0
2.505249208E0,1.337679625E0,-3.504665852E0,1.499000669E0
2.515276208E0,1.109795213E0,-3.606528997E0,1.583898306E0
2.525303208E0,5.613160729E-1,-3.525466919E0,1.761674166E0
2.535330208E0,1.182600670E-2,-3.077098131E0,1.948506355E0
2.545356208E0,-3.357516825E-1,-2.187599897E0,2.079003811E0
2.555383208E0,-4.287085533E-1,-1.490835309E0,2.114384413E0
2.565410208E0,-3.300632238E-1,-1.311968923E0,1.901005507E0
2.575437208E0,-1.947523952E-1,-1.519134879E0,1.524873853E0
2.585463208E0,-4.189653695E-2,-1.812815666E0,1.214034200E0
2.595490208E0,2.699019611E-1,-1.874100327E0,1.143127680E0
2.605517208E0,8.479152322E-1,-2.007305622E0,1.405935645E0
2.615543208E0,1.101281643E0,-1.841699719E0,1.704808950E0
2.625570208E0,7.542924881E-1,-1.682635784E0,1.770546198E0
2.635597208E0,1.874484494E-2,-1.150569201E0,1.617384672E0
2.645624208E0,-7.166274190E-1,-3.193002641E-1,1.482936859E0
2.655650208E0,-1.127559781E0,1.091288626E-1,1.466313124E0
2.665677208E0,-1.240220904E0,3.321028352E-1,1.379101992E0
2.675704208E0,-1.029783607E0,2.210609615E-1,1.167185545E0
2.685731208E0,-5.003162622E-1,-1.821240485E-1,1.056580901E0
2.695757208E0,-2.213140950E-2,-3.261159062E-1,7.522361279E-1
2.705784208E0,3.814567924E-1,-2.397804856E-1,4.538169503E-1
2.715811208E0,7.028290033E-1,-4.825079143E-1,3.365144134E-1
2.725837208E0,-1.694777980E-2,3.416996896E-1,7.968623042E-1
2.735864208E0,-5.838251710E-1,3.335244060E-1,1.028042555E0
2.745891208E0,-1.206302047E0,4.112948179E-1,1.340963483E0
2.755918208E0,-1.539360166E0,7.537186146E-1,1.481417656E0
2.765944208E0,-1.673162937E0,8.582058549E-1,1.495127320E0
2.775971208E0,-1.622589707E0,6.650985479E-1,1.494986653E0
2.785998208E0,-1.435627818E0,3.239896894E-1,1.409370542E0
2.796025208E0,-1.182293773E0,-3.657148182E-1,1.373045564E0
2.806051208E0,-9.567049146E-1,-1.143126607E0,1.458139062E0
2.816078208E0,-6.939710379E-1,-1.567642212E0,1.592293620E0
2.826105208E0,-3.973552883E-1,-1.730907083E0,1.797105074E0
2.836131208E0,-1.727577001E-1,-1.763339758E0,2.058009863E0
2.846158208E0,-8.941192925E-2,-1.823434711E0,2.330472469E0
2.856185208E0,-8.267765492E-2,-2.078379631E0,2.606373549E0
2.866212208E0,-1.080493182E-1,-2.481068611E0,2.820456028E0
2.876238208E0,-1.833048463E-1,-2.796655655E0,2.838716984E0
2.886265208E0,-1.865022331E-1,-3.098781586E0,2.704629421E0
2.896292208E0,-1.044812351E-1,-3.238508940E0,2.590588808E0
2.906319208E0,-1.346743852E-2,-2.995404720E0,2.510241747E0
2.916345208E0,4.880359024E-2,-2.629979134E0,2.480601549E0
2.926372208E0,1.061587632E-1,-2.389735937E0,2.665866137E0
2.936399208E0,1.223679110E-1,-2.351055861E0,3.046638012E0
2.946425208E0,1.209295318E-1,-2.290777922E0,3.459798813E0
2.956452208E0,2.211641893E-2,-2.132076740E0,3.768847227E0
2.966479208E0,-1.644683778E-1,-2.091353893E0,3.799495459E0
2.976506208E0,-3.915095329E-1,-2.237975597E0,3.559172392E0
2.986532208E0,-6.438813210E-1,-2.490452766E0,3.172314167E0
2.996559208E0,-8.842257857E-1,-2.813027620E0,2.738990545E0
3.006586208E0,-1.043369293E0,-3.168873072E0,2.371249437E0
3.016612208E0,-1.067517757E0,-3.537179470E0,2.229722261E0
3.026639208E0,-8.770196438E-1,-3.870705843E0,2.238721848E0
3.036666208E0,-5.183898807E-1,-3.962191582E0,2.358384609E0
3.046693208E0,-1.150722206E-1,-3.672411442E0,2.535673380E0
3.056719208E0,1.933989078E-1,-3.053002596E0,2.715569019E0
3.066742208E0,2.551056743E-1,-2.348816395E0,2.811614275E0
3.076769208E0,8.461563289E-2,-1.831401110E0,2.703706503E0
3.086796208E0,-2.865176797E-1,-1.678355336E0,2.314033985E0
3.096822208E0,-6.552596092E-1,-2.112974644E0,1.785853744E0
3.106849208E0,-1.130511284E0,-2.437291861E0,1.212850332E0
3.116876208E0,-1.420354009E0,-2.464814425E0,8.152038455E-1
3.126903208E0,-1.376786232E0,-2.298437595E0,7.375908494E-1
3.136929208E0,-1.101430416E0,-1.919350028E0,1.033421278E0
3.146956208E0,-8.914283514E-1,-1.286997676E0,1.300116301E0
3.156983208E0,-8.524679542E-1,-6.845192909E-1,1.242548943E0
3.167009208E0,-9.125845432E-1,-4.472359121E-1,9.750402570E-1
3.177036208E0,-1.031185389E0,-4.080728590E-1,7.155086398E-1
3.187063208E0,-1.268334270E0,-4.461262226E-1,5.673061013E-1
3.197090208E0,-1.535840034E0,-7.138624191E-1,3.653105497E-1
3.207116208E0,-1.696521282E0,-1.168739915E0,3.894602135E-2
3.217143208E0,-1.707243323E0,-1.653340697E0,-2.272999436E-1
3.227170208E0,-1.450626969E0,-2.043901682E0,-1.835026592E-1
3.237197208E0,-8.975585699E-1,-2.004822016E0,3.001696765E-1
3.247223208E0,-1.929833591E-1,-1.514380932E0,7.524793744E-1
3.257250208E0,4.191738069E-1,-9.540580511E-1,1.029960632E0
3.267277208E0,7.296275496E-1,-4.751514196E-1,1.057220221E0
3.277303208E0,7.198140025E-1,-8.956995793E-3,8.846162558E-1
3.287330208E0,3.483115435E-1,6.557371020E-1,6.798471212E-1
3.297357208E0,-3.280067742E-1,1.491297364E0,7.255711555E-1
3.307384208E0,-1.163330197E0,2.483632565E0,1.011796713E0
3.317410208E0,-1.985160947E0,3.162545919E0,1.241405725E0
3.327437208E0,-2.521777391E0,3.364590406E0,1.300024271E0
3.337464208E0,-2.567038298E0,3.055132866E0,1.235698700E0
3.347491208E0,-2.057294607E0,2.295605659E0,1.074588895E0
3.357517208E0,-1.200378299E0,1.175816059E0,8.188927174E-1
