"Time (s)","Acceleration x (m/s^2)","Acceleration y (m/s^2)","Acceleration z (m/s^2)"
3.540616000E-3,-3.779534578E0,5.949217796E0,6.396147728E0
7.510928000E-3,-3.827054739E0,5.989545822E0,6.367341518E0
1.148124100E-2,-3.905009985E0,6.100569725E0,6.259726524E0
1.545155300E-2,-3.932227373E0,6.176005840E0,6.143645763E0
1.942186600E-2,-3.946477652E0,6.228563309E0,6.054217815E0
2.339217800E-2,-3.914050579E0,6.268977642E0,6.008460045E0
2.736249100E-2,-3.874641895E0,6.269514084E0,6.013870716E0
3.133436600E-2,-3.838441610E0,6.252265930E0,6.053365707E0
3.530467800E-2,-3.787464380E0,6.234558582E0,6.132938862E0
3.927499100E-2,-3.762420893E0,6.234348297E0,6.298512459E0
4.324530300E-2,-3.769115210E0,6.182691097E0,6.484685421E0
4.721874100E-2,-3.673787594E0,6.097724915E0,6.752233028E0
5.118592800E-2,-3.570990324E0,6.001554966E0,7.008230686E0
5.515624100E-2,-3.474590063E0,5.886940002E0,7.185986042E0
5.912811600E-2,-3.357733965E0,5.797051907E0,7.388659477E0
6.309686600E-2,-3.246930122E0,5.729621410E0,7.523577690E0
6.706874100E-2,-3.142466307E0,5.655037403E0,7.630866528E0
7.103905300E-2,-3.060728312E0,5.659720421E0,7.766091347E0
7.500936600E-2,-2.997540474E0,5.632110119E0,7.810479641E0
7.897967800E-2,-2.976969481E0,5.587472916E0,7.811197758E0
8.294999100E-2,-2.959022760E0,5.599118233E0,7.736517906E0
8.692030300E-2,-2.965352774E0,5.667707443E0,7.696142197E0
9.089217800E-2,-2.988835096E0,5.698717117E0,7.699905872E0
9.486249100E-2,-2.959932327E0,5.728491783E0,7.696783543E0
9.883280300E-2,-2.930311203E0,5.717861176E0,7.687503815E0
1.028031160E-1,-2.875254393E0,5.687234402E0,7.605669975E0
1.067734280E-1,-2.781650543E0,5.604960442E0,7.475665092E0
1.107437410E-1,-2.669755220E0,5.505907059E0,7.293370724E0
1.147156160E-1,-2.619189739E0,5.447843075E0,7.147180557E0
1.186859280E-1,-2.560914755E0,5.431466579E0,6.978657246E0
1.226609280E-1,-2.561776638E0,5.452803612E0,6.868294239E0
1.266265530E-1,-2.645927906E0,5.525194645E0,6.770821571E0
1.305968660E-1,-2.654480219E0,5.613885880E0,6.668081760E0
1.345671780E-1,-2.679092646E0,5.699186325E0,6.641055584E0
1.385390530E-1,-2.777139902E0,5.755909443E0,6.623750687E0
1.425078030E-1,-2.841295004E0,5.784152031E0,6.639647961E0
1.464781160E-1,-2.869010210E0,5.764634132E0,6.618780136E0
1.504499910E-1,-2.876154423E0,5.745557308E0,6.786288261E0
1.544203030E-1,-2.926519156E0,5.788413525E0,7.307304859E0
1.583906160E-1,-2.961187124E0,5.731383801E0,7.196500778E0
1.623609280E-1,-2.862133980E0,5.624669552E0,6.768992424E0
1.663312410E-1,-2.724572659E0,5.565589905E0,6.705689430E0
1.703015530E-1,-2.601807594E0,5.534819603E0,6.884957790E0
1.742734280E-1,-2.474560738E0,5.466709614E0,7.110271454E0
1.782437410E-1,-2.387574434E0,5.400600433E0,7.211804867E0
1.822140530E-1,-2.408672333E0,5.417082310E0,7.171917439E0
1.861843660E-1,-2.420729399E0,5.460876942E0,7.153865337E0
1.901546780E-1,-2.399852037E0,5.456299305E0,7.340172291E0
1.941249910E-1,-2.396059513E0,5.388582230E0,7.518396378E0
1.980968660E-1,-2.387507677E0,5.293656826E0,7.560773849E0
2.020656160E-1,-2.330333948E0,5.154333115E0,7.668264389E0
2.060374910E-1,-2.241489887E0,5.022556305E0,7.797876358E0
2.100078030E-1,-2.174232006E0,4.934555054E0,7.797244549E0
2.139781160E-1,-2.131145954E0,4.893499374E0,7.724422455E0
2.179484280E-1,-2.082007408E0,4.824172974E0,7.667526722E0
2.219234280E-1,-2.043690443E0,4.791113853E0,7.656063557E0
2.258890530E-1,-2.011474133E0,4.809558392E0,7.725275040E0
2.298609280E-1,-1.961243868E0,4.833510399E0,7.836241245E0
2.338312410E-1,-1.924344301E0,4.819479942E0,7.940446854E0
2.378015530E-1,-1.897088885E0,4.779850960E0,8.031703949E0
2.417718660E-1,-1.879917622E0,4.764183521E0,8.228996277E0
2.457421780E-1,-1.969345808E0,4.829057217E0,8.653171539E0
2.497124910E-1,-1.944877028E0,4.723616123E0,8.738970757E0
2.536828030E-1,-1.889092207E0,4.605026722E0,8.829260826E0
2.576546780E-1,-1.813272595E0,4.537883759E0,8.965911865E0
2.616234280E-1,-1.723288894E0,4.495640755E0,9.136197090E0
2.655953030E-1,-1.619945526E0,4.465061665E0,9.202928543E0
2.695656160E-1,-1.523085833E0,4.382528782E0,9.260763168E0
2.735359280E-1,-1.414283633E0,4.288982391E0,9.252584457E0
2.775078030E-1,-1.316552401E0,4.218133450E0,9.167742729E0
2.814765530E-1,-1.264473677E0,4.191136360E0,9.097333908E0
2.854468660E-1,-1.213074923E0,4.183005333E0,9.079588890E0
2.894187410E-1,-1.190224767E0,4.187793732E0,9.130709648E0
2.933953030E-1,-1.144658208E0,4.182086468E0,9.130901337E0
2.973593660E-1,-1.149839401E0,4.173294544E0,9.070001602E0
3.013296780E-1,-1.154196739E0,4.153844357E0,8.900798798E0
3.052999910E-1,-1.165277123E0,4.149266720E0,8.790598869E0
3.092703030E-1,-1.168657660E0,4.148461819E0,8.719874382E0
3.132421780E-1,-1.144696474E0,4.172480583E0,8.727918625E0
3.172124910E-1,-1.128866076E0,4.162769318E0,8.787964821E0
3.211812410E-1,-1.114654183E0,4.156832218E0,8.791489601E0
3.251531160E-1,-1.107251167E0,4.182564735E0,8.786366463E0
3.291234280E-1,-1.111599088E0,4.209418297E0,8.774461746E0
3.330937410E-1,-1.079066634E0,4.248625755E0,8.705135345E0
3.370640530E-1,-1.049981952E0,4.266592026E0,8.670495987E0
3.410343660E-1,-1.017219663E0,4.283609867E0,8.663227081E0
3.450046780E-1,-9.475292563E-1,4.262023926E0,8.636585236E0
3.489765530E-1,-8.795243502E-1,4.232814312E0,8.610114098E0
3.529468660E-1,-7.882669568E-1,4.198405266E0,8.629966736E0
3.569171780E-1,-7.356902957E-1,4.204582214E0,8.653094292E0
3.608874910E-1,-6.797521710E-1,4.258097172E0,8.626834869E0
3.648578030E-1,-6.247621179E-1,4.312685013E0,8.563973427E0
3.688281160E-1,-5.589790940E-1,4.267980576E0,8.613849640E0
3.727999910E-1,-4.852089286E-1,4.180754662E0,8.621252060E0
3.767703030E-1,-4.429368973E-1,4.131769657E0,8.560764313E0
3.807406160E-1,-3.951199055E-1,4.071665764E0,8.487636566E0
3.847109280E-1,-3.792032599E-1,4.017949104E0,8.374908447E0
3.886812410E-1,-3.697317839E-1,4.046813488E0,8.332348824E0
3.926515530E-1,-3.235428333E-1,4.113755703E0,8.307075500E0
3.966218660E-1,-2.951093018E-1,4.162520885E0,8.264363289E0
4.005921780E-1,-2.857623398E-1,4.198021889E0,8.224677086E0
4.045640530E-1,-2.445820570E-1,4.230401516E0,8.162916183E0
4.085343660E-1,-2.166752517E-1,4.235774040E0,8.113834381E0
4.125031160E-1,-1.938824505E-1,4.241845131E0,8.055089951E0
4.164749910E-1,-1.677186191E-1,4.228342056E0,8.011918068E0
4.204453030E-1,-1.410376281E-1,4.210596085E0,7.928092480E0
4.244156160E-1,-1.239526123E-1,4.212789536E0,7.855432987E0
4.283874910E-1,-5.771941319E-2,4.160164833E0,7.776252270E0
4.323578030E-1,-8.494627662E-3,4.138147831E0,7.737820148E0
4.363281160E-1,1.161858216E-1,4.075639725E0,7.806773663E0
4.402984280E-1,2.921692133E-1,3.988605976E0,8.026963234E0
4.442687410E-1,4.665532708E-1,3.893422127E0,8.215157509E0
4.482390530E-1,5.939918756E-1,3.793708324E0,8.417898178E0
4.522109280E-1,7.152820826E-1,3.599270582E0,8.590941429E0
4.561812410E-1,7.897800803E-1,3.485315800E0,8.720505714E0
4.601515530E-1,8.553141952E-1,3.361670017E0,8.827899933E0
4.641218660E-1,8.423759341E-1,3.236031771E0,8.879481316E0
4.680921780E-1,8.768141270E-1,3.150951385E0,8.939853668E0
4.720624910E-1,1.035760403E0,3.069644213E0,9.150093079E0
4.760328030E-1,1.183894396E0,3.022210360E0,9.204421997E0
4.800031160E-1,1.287467599E0,3.030704975E0,9.152074814E0
4.839734280E-1,1.288540125E0,3.076281071E0,9.037690163E0
4.879453030E-1,1.274567604E0,3.141671419E0,8.923870087E0
4.919156160E-1,1.212653518E0,3.214416981E0,8.789161682E0
4.958843660E-1,1.176462889E0,3.293406487E0,8.703707695E0
4.998562410E-1,1.151745081E0,3.374703884E0,8.666244507E0
5.038265530E-1,1.102893829E0,3.467033863E0,8.667737961E0
5.077968660E-1,1.064739704E0,3.521947384E0,8.660306931E0
5.117687410E-1,1.002892733E0,3.565569639E0,8.707002640E0
5.157374910E-1,9.016946554E-1,3.599280119E0,8.855664253E0
5.197093660E-1,7.907952070E-1,3.602334976E0,9.015501022E0
5.236796780E-1,5.952942967E-1,3.596062183E0,9.243610382E0
5.276499910E-1,4.221265018E-1,3.616364956E0,9.425762177E0
5.316203030E-1,1.617809832E-1,3.642117262E0,9.697550774E0
5.355906160E-1,-2.128924243E-2,3.663157225E0,9.913479805E0
5.395609280E-1,-1.871307939E-1,3.695057631E0,1.009766006E1
5.435328030E-1,-3.950624466E-1,3.727034569E0,1.029623508E1
5.475031160E-1,-5.755661130E-1,3.739063025E0,1.047592545E1
5.514734280E-1,-7.868783474E-1,3.767429590E0,1.071655178E1
5.554437410E-1,-9.819387197E-1,3.802078485E0,1.099072647E1
5.594140530E-1,-1.095031261E0,3.828596592E0,1.119868660E1
5.633843660E-1,-1.186259866E0,3.886842728E0,1.141366673E1
5.673546780E-1,-1.232908607E0,3.936364412E0,1.148273563E1
5.713265530E-1,-1.255797148E0,3.966981411E0,1.135906887E1
5.752953030E-1,-1.263420343E0,4.010939121E0,1.107331753E1
5.792671780E-1,-1.268218279E0,4.014540195E0,1.070285702E1
5.832374910E-1,-1.322872996E0,4.045817852E0,1.018366051E1
5.872078030E-1,-1.419292331E0,4.102952957E0,9.649264336E0
5.911781160E-1,-1.490467191E0,4.125401020E0,9.235345840E0
5.951484280E-1,-1.569427967E0,4.134623528E0,8.877853394E0
5.991187410E-1,-1.604708910E0,4.107061386E0,8.584793091E0
6.030906160E-1,-1.612466097E0,4.084326267E0,8.330040932E0
6.070609280E-1,-1.578707933E0,4.078809738E0,8.256136894E0
6.110312410E-1,-1.557064295E0,4.093567848E0,8.275069237E0
6.150015530E-1,-1.575911522E0,4.106027126E0,8.414776802E0
6.189843660E-1,-1.604660988E0,4.079202652E0,8.614692688E0
6.229421780E-1,-1.651405454E0,4.055011272E0,8.888387680E0
6.269140530E-1,-1.702938199E0,3.992733717E0,9.375473976E0
6.308828030E-1,-1.690296888E0,3.904732227E0,9.936348915E0
6.348531160E-1,-1.652439713E0,3.791342735E0,1.065907192E1
6.388249910E-1,-1.580259323E0,3.633191347E0,1.129477119E1
6.427953030E-1,-1.472558618E0,3.393043518E0,1.200908566E1
6.467656160E-1,-1.365719676E0,3.148059130E0,1.261820889E1
6.507374910E-1,-1.220094681E0,2.892626762E0,1.314790249E1
6.547062410E-1,-1.077017188E0,2.663654804E0,1.347629070E1
6.586765530E-1,-8.887372613E-1,2.514208794E0,1.375821304E1
6.626484280E-1,-6.064225435E-1,2.430296659E0,1.385628891E1
6.666187410E-1,-2.655648589E-1,2.345963478E0,1.366734886E1
6.705890530E-1,8.727343380E-2,2.162194014E0,1.329453278E1
6.745593660E-1,2.866721451E-1,2.085502863E0,1.270746517E1
6.785296780E-1,3.843268454E-1,2.061302185E0,1.193987370E1
6.824999910E-1,4.011628628E-1,1.990510583E0,1.123644829E1
6.864718660E-1,4.029345810E-1,1.882943869E0,1.039774036E1
6.904421780E-1,4.151066840E-1,1.806645513E0,9.726147652E0
6.944124910E-1,4.695891440E-1,1.725319266E0,9.040716171E0
6.983828030E-1,5.384272337E-1,1.715589166E0,8.422648430E0
7.023531160E-1,6.297038198E-1,1.728690147E0,8.000981331E0
7.063234280E-1,7.692762017E-1,1.808484197E0,7.662086964E0
7.102953030E-1,8.735484481E-1,1.909596086E0,7.486946106E0
7.142640530E-1,9.577956200E-1,1.997549534E0,7.390450478E0
7.182406160E-1,9.335566759E-1,2.075725079E0,7.417686939E0
7.222062410E-1,8.598535657E-1,2.142072916E0,7.584150791E0
7.261765530E-1,7.138264775E-1,2.237218857E0,7.972021580E0
7.301468660E-1,5.781230927E-1,2.306890011E0,8.404720306E0
7.341171780E-1,4.339059889E-1,2.407398462E0,8.940380096E0
7.380874910E-1,3.217232227E-1,2.462522745E0,9.365992546E0
7.420578030E-1,2.434998900E-1,2.501030922E0,9.614424706E0
7.460296780E-1,2.315001488E-1,2.451384783E0,9.753211975E0
7.499984280E-1,2.551452816E-1,2.401173592E0,9.782343864E0
7.539703030E-1,3.431561291E-1,2.332383394E0,9.689918518E0
7.579406160E-1,4.663713276E-1,2.241796494E0,9.566195488E0
7.619109280E-1,6.093721986E-1,2.156055212E0,9.445116043E0
7.658812410E-1,6.931788325E-1,2.087121248E0,9.221899986E0
7.698515530E-1,7.471728921E-1,2.042033911E0,8.913775444E0
7.738218660E-1,7.789774537E-1,2.031144857E0,8.694572449E0
7.777937410E-1,8.090103269E-1,2.031585455E0,8.565410614E0
7.817640530E-1,8.038676381E-1,2.046611547E0,8.482819557E0
7.857343660E-1,8.201768994E-1,2.079498291E0,8.392003059E0
7.897046780E-1,7.694869041E-1,2.113859892E0,8.279121399E0
7.936749910E-1,6.703668833E-1,2.176923037E0,8.120203018E0
7.976453030E-1,6.176753044E-1,2.236423731E0,7.961735725E0
8.016171780E-1,5.759874582E-1,2.240254641E0,7.807185173E0
8.055874910E-1,5.113248825E-1,2.306056976E0,7.647855759E0
8.095562410E-1,4.664958417E-1,2.416410446E0,7.471690655E0
8.135281160E-1,5.066035390E-1,2.499939203E0,7.299298286E0
8.175015530E-1,5.709788203E-1,2.575279951E0,7.141079903E0
8.214687410E-1,6.615371108E-1,2.602774858E0,7.093569279E0
8.254390530E-1,8.391006589E-1,2.548158407E0,7.242785454E0
8.294093660E-1,1.038355708E0,2.383025646E0,7.658725739E0
8.333796780E-1,1.212002277E0,2.152961969E0,8.156776428E0
8.373515530E-1,1.406181693E0,1.790001035E0,8.789525986E0
8.413218660E-1,1.649863482E0,1.379357100E0,9.447453499E0
8.452921780E-1,1.856933236E0,1.089754343E0,9.921955109E0
8.492624910E-1,2.122383356E0,8.051604629E-1,1.035985470E1
8.532328030E-1,2.356210470E0,6.740252972E-1,1.062357140E1
8.572031160E-1,2.648274422E0,5.252016783E-1,1.096920681E1
8.611749910E-1,2.880789757E0,4.261966348E-1,1.125298691E1
8.651453030E-1,3.070314646E0,3.174519837E-1,1.150279903E1
8.691156160E-1,3.203547001E0,2.572521865E-1,1.164147091E1
8.730859280E-1,3.258575439E0,2.166177928E-1,1.178270054E1
8.770562410E-1,3.317740917E0,1.685039252E-1,1.192037582E1
8.810265530E-1,3.362119913E0,1.332516968E-1,1.205877018E1
8.849984280E-1,3.331368923E0,1.286644042E-1,1.213907242E1
8.889703030E-1,3.200970888E0,1.666651666E-1,1.214060402E1
8.929390530E-1,3.037408590E0,2.104503363E-1,1.204743195E1
8.969093660E-1,2.787252903E0,3.232459724E-1,1.194598484E1
9.008796780E-1,2.576515436E0,4.674152136E-1,1.182980728E1
9.048499910E-1,2.402753830E0,5.784103870E-1,1.175976372E1
9.088203030E-1,2.234374285E0,6.978044510E-1,1.166869736E1
9.127906160E-1,2.099647999E0,7.651293874E-1,1.156340027E1
9.167609280E-1,1.942128539E0,8.311806917E-1,1.147861671E1
9.207328030E-1,1.792567492E0,8.647378087E-1,1.148017788E1
9.247031160E-1,1.701386690E0,8.575743437E-1,1.151384926E1
9.286734280E-1,1.606068850E0,8.124005198E-1,1.150156307E1
9.326437410E-1,1.567933917E0,7.866676450E-1,1.142683506E1
9.366140530E-1,1.544346333E0,7.603313923E-1,1.127717876E1
9.405843660E-1,1.551682115E0,7.716703415E-1,1.110573483E1
9.445562410E-1,1.560195923E0,7.666138411E-1,1.093536282E1
9.485249910E-1,1.561172724E0,7.908718586E-1,1.074451637E1
9.524968660E-1,1.564639568E0,8.062521815E-1,1.065658188E1
9.564671780E-1,1.599997044E0,8.318126798E-1,1.068672943E1
9.604374910E-1,1.660283089E0,8.470972776E-1,1.081619930E1
9.644078030E-1,1.719592333E0,8.619030118E-1,1.099032402E1
9.683781160E-1,1.812496781E0,8.845809102E-1,1.123921585E1
9.723484280E-1,1.874851465E0,9.006124735E-1,1.138055992E1
9.763203030E-1,1.963695526E0,9.123057723E-1,1.149903488E1
9.802906160E-1,2.004148006E0,9.183200002E-1,1.157473946E1
9.842609280E-1,2.055441380E0,8.944163322E-1,1.160574913E1
9.882312410E-1,2.129163504E0,8.543660641E-1,1.157475853E1
9.922015530E-1,2.211955070E0,7.833923697E-1,1.155729961E1
9.961718660E-1,2.273466825E0,7.306145430E-1,1.144060612E1
1.000143741E0,2.354687691E0,7.341580391E-1,1.130835056E1
1.004112491E0,2.414092779E0,7.196300030E-1,1.116199780E1
1.008084366E0,2.386300802E0,7.749456167E-1,1.081554794E1
1.012054678E0,2.354256868E0,8.272733092E-1,1.056525803E1
1.016024991E0,2.334068775E0,9.116641283E-1,1.035877228E1
1.019995303E0,2.293980360E0,9.849554300E-1,1.018880272E1
1.023965616E0,2.195090294E0,1.061129451E0,1.016845226E1
1.027935928E0,1.927246213E0,1.292332649E0,1.007144928E1
1.031907803E0,1.629924655E0,1.537048697E0,1.003227901E1
1.035878116E0,1.429022312E0,1.690775633E0,1.009636784E1
1.039846866E0,1.254829884E0,1.824554086E0,1.020151138E1
1.043818741E0,1.138471723E0,1.953189731E0,1.033166027E1
1.047789053E0,1.073952675E0,2.059329510E0,1.052448940E1
1.051759366E0,1.008830428E0,2.134478807E0,1.062935543E1
1.055729678E0,1.006426692E0,2.183885574E0,1.060065365E1
1.059701553E0,1.036373258E0,2.294459343E0,1.054080868E1
1.063670303E0,1.076222420E0,2.371830225E0,1.038122082E1
1.067642178E0,1.013159156E0,2.407609224E0,1.011096287E1
1.071612491E0,-5.165729672E-2,2.115689039E0,9.704245567E0
1.075582803E0,4.125496745E-1,2.383839607E0,1.008135128E1
1.079553116E0,1.128205299E0,2.674342632E0,9.998339653E0
1.083523428E0,1.527644277E0,2.910841703E0,9.504760742E0
1.087493741E0,1.914279222E0,3.098307610E0,8.709464073E0
1.091465616E0,2.194113493E0,3.164138556E0,7.842169285E0
1.095435928E0,2.354247332E0,3.145243645E0,7.163403988E0
1.099406241E0,2.326053143E0,3.087217808E0,6.678118229E0
1.103376553E0,2.467531204E0,3.104197502E0,6.439598083E0
1.107346866E0,2.396183968E0,3.029776096E0,6.145810604E0
1.111317178E0,2.179930210E0,2.916329145E0,6.068285942E0
1.115289053E0,2.003429651E0,2.813043356E0,6.237479687E0
1.119257803E0,1.853954792E0,2.788718224E0,6.614595413E0
1.123228116E0,1.722340822E0,2.808264494E0,7.120422840E0
1.127199991E0,1.600686669E0,2.873501778E0,7.734200478E0
1.131170303E0,1.490534186E0,2.941726923E0,8.295793533E0
1.135140616E0,1.372806549E0,3.061398745E0,8.741594315E0
1.139110928E0,1.214913726E0,3.198825836E0,9.203875542E0
1.143081241E0,1.071912885E0,3.304151535E0,9.644610405E0
1.147051553E0,9.400402308E-1,3.382729292E0,9.942237854E0
1.151023428E0,8.024215102E-1,3.466746569E0,1.018421555E1
1.154993741E0,7.601207495E-1,3.518059015E0,1.028895664E1
1.158964053E0,6.385623217E-1,3.611097813E0,1.031262207E1
1.162934366E0,4.931768179E-1,3.708254337E0,1.019748878E1
1.166904678E0,4.059416950E-1,3.791419506E0,9.979702950E0
1.170874991E0,3.642442524E-1,3.855009556E0,9.698978424E0
1.174845303E0,3.389519453E-1,3.846083879E0,9.410169601E0
1.178815616E0,9.459970146E-2,3.759662867E0,8.962990761E0
1.182787491E0,-9.790177941E-1,3.421907902E0,8.506110191E0
1.186757803E0,-4.806216061E-1,3.653139830E0,8.795051575E0
1.190728116E0,9.155427106E-3,3.889763594E0,8.500307083E0
1.194698428E0,3.079518080E-1,4.061207771E0,8.056038857E0
1.198668741E0,6.663255095E-1,4.171111107E0,7.470253944E0
1.202639053E0,9.281266332E-1,4.138052464E0,6.840885162E0
1.206610928E0,1.023751140E0,4.041268826E0,6.389971256E0
1.210581241E0,1.152635694E0,3.981518984E0,6.085610867E0
1.214551553E0,1.187188864E0,3.901658297E0,5.977507591E0
1.218521866E0,1.389632940E0,3.844781399E0,6.016140461E0
1.222492178E0,1.419704080E0,3.767122984E0,6.077029705E0
1.226462491E0,1.417099237E0,3.642921686E0,6.380327225E0
1.230432803E0,1.377910972E0,3.504364252E0,6.719633102E0
1.234403116E0,1.365987778E0,3.415711880E0,7.200216770E0
1.238373428E0,1.415902138E0,3.366122961E0,7.705757141E0
1.242345303E0,1.494269133E0,3.337603331E0,8.217617989E0
1.246317178E0,1.497592330E0,3.293205261E0,8.634391785E0
1.250285928E0,1.479022980E0,3.279567957E0,8.822556496E0
1.254256241E0,1.396691084E0,3.240609407E0,8.875469208E0
1.258226553E0,1.336836100E0,3.247112036E0,8.893549919E0
1.262196866E0,1.323955178E0,3.262425423E0,8.988264084E0
1.266168741E0,1.241556406E0,3.272969484E0,8.978419304E0
1.270139053E0,1.203584313E0,3.313172817E0,9.051136017E0
1.274109366E0,1.106571317E0,3.346394777E0,9.107590675E0
1.278079678E0,9.571922421E-1,3.335055828E0,9.211106300E0
1.282049991E0,8.596524596E-1,3.362934113E0,9.228899956E0
1.286020303E0,7.060787678E-1,3.360271692E0,9.085536003E0
1.289992178E0,6.016150117E-1,3.369398355E0,8.997946739E0
1.293962491E0,4.462791979E-1,3.383370876E0,8.723944664E0
1.297931241E0,3.245005310E-1,3.418488979E0,8.473875046E0
1.301903116E0,2.415941060E-1,3.483448505E0,8.232835770E0
1.305873428E0,2.300061584E-1,3.531447411E0,8.088858604E0
1.309843741E0,2.219616473E-1,3.566316605E0,7.930419445E0
1.313818741E0,2.514486313E-1,3.599893093E0,7.831644535E0
1.317784366E0,2.900814712E-1,3.640115499E0,7.781452656E0
1.321754678E0,3.633919358E-1,3.667562723E0,7.781098366E0
1.325726553E0,4.342411458E-1,3.681707621E0,7.810287952E0
1.329696866E0,5.441828966E-1,3.722160101E0,7.951344490E0
1.333667178E0,6.226265430E-1,3.738459826E0,8.258549690E0
1.337637491E0,6.998155713E-1,3.743267298E0,8.541381836E0
1.341607803E0,7.222061753E-1,3.736123085E0,8.879500389E0
1.345579678E0,7.743422985E-1,3.667783022E0,9.233736992E0
1.349549991E0,7.518463731E-1,3.645229578E0,9.358753204E0
1.353520303E0,6.679343581E-1,3.699022532E0,9.382990837E0
1.357490616E0,6.261220574E-1,3.756559849E0,9.421480179E0
1.361460928E0,5.812451243E-1,3.794608593E0,9.440050125E0
1.365431241E0,5.430049300E-1,3.844417572E0,9.378787041E0
1.369401553E0,4.978119731E-1,3.901179314E0,9.292184830E0
